-0.375526
-0.308475
-0.206514
-0.121043
-0.031381
0.077153
0.146157
0.206432
0.25728
0.24945
0.221361
0.168294
0.070378
-0.028414
-0.123069
-0.232832
-0.315168
-0.364201
-0.431074
-0.425789
-0.373674
-0.323221
-0.236467
-0.148757
-0.055584
0.049945
0.151027
0.211939
0.271726
0.274899
0.234759
0.167406
0.06264
-0.026222
-0.122642
-0.232412
-0.307946
-0.355299
-0.407211
-0.411776
-0.393017
-0.350739
-0.243915
-0.145508
-0.059831
0.053818
0.145141
0.207018
0.261338
0.256946
0.23086
0.192745
0.092973
-0.011018
-0.103705
-0.206547
-0.29146
-0.341051
-0.404276
-0.407343
-0.398881
-0.347593
-0.245813
-0.144614
-0.058005
0.043592
0.129855
0.192782
0.250465
0.236089
0.220136
0.173497
0.077241
-0.007505
-0.103704
-0.20178
-0.299706
-0.360486
-0.422383
-0.417627
-0.390535
-0.344345
-0.236403
-0.148922
-0.065238
0.054797
0.142143
0.200779
0.280262
0.272539
0.251339
0.192059
0.091057
0.006121
-0.092366
-0.213586
-0.292047
-0.331651
-0.376671
-0.373469
-0.366122
-0.333513
-0.234404
-0.14381
-0.051154
0.06293
0.153521
0.211514
0.274765
0.268039
0.246918
0.210372
0.107213
0.023727
-0.071633
-0.182033
-0.278138
-0.333544
-0.389548
-0.397532
-0.37633
-0.328877
-0.227883
-0.139141
-0.057274
0.060126
0.164971
0.238769
0.277144
0.27223
0.265217
0.217947
0.103895
0.019255
-0.071041
-0.184424
-0.275373
-0.335799
-0.399242
-0.402137
-0.367923
-0.320156
-0.23791
-0.147718
-0.055679
0.051771
0.147792
0.204682
0.267055
0.282346
0.260925
0.21873
0.123224
0.03302
-0.059039
-0.169381
-0.259476
-0.333052
-0.387695
-0.390341
-0.375015
-0.329677
-0.231492
-0.146047
-0.059297
0.062759
0.159771
0.207849
0.287968
0.291727
0.273939
0.222174
0.121377
0.03735
-0.056808
-0.16201
-0.241701
-0.310814
-0.381293
-0.380121
-0.36108
-0.324969
-0.230219
-0.144664
-0.057478
0.03581
0.144364
0.207775
0.27628
0.280388
0.257911
0.217436
0.137701
0.047979
-0.04592
-0.153105
-0.249933
-0.319454
-0.377206
-0.387317
-0.3625
-0.337191
-0.265846
-0.162553
-0.064031
0.033994
0.120769
0.17847
0.23833
0.277258
0.27689
0.235329
0.15084
0.059881
-0.029185
-0.141458
-0.255933
-0.331137
-0.377814
-0.375371
-0.373377
-0.326572
-0.249739
-0.157548
-0.058728
0.051251
0.139311
0.215692
0.285359
0.294242
0.270938
0.226453
0.146653
0.0493
-0.038879
-0.14054
-0.240809
-0.315704
-0.369655
-0.39272
-0.371657
-0.325456
-0.249736
-0.144846
-0.051027
0.0463
0.142101
0.222445
0.278818
0.299035
0.274232
0.243476
0.166447
0.071721
-0.03112
-0.135943
-0.225332
-0.295526
-0.345714
-0.371484
-0.372081
-0.333749
-0.259913
-0.162261
-0.069408
0.038821
0.139085
0.220392
0.26862
0.298588
0.288854
0.255056
0.189355
0.091301
-0.008074
-0.10443
-0.211923
-0.292699
-0.345638
-0.371177
-0.350857
-0.322896
-0.262185
-0.153103
-0.048986
0.066224
0.166979
0.242506
0.298905
0.331162
0.297366
0.249385
0.187209
0.091617
-0.004348
-0.116827
-0.215115
-0.287905
-0.339703
-0.362755
-0.352094
-0.321327
-0.238291
-0.129211
-0.041769
0.046118
0.149277
0.231705
0.282822
0.312915
0.311078
0.263984
0.198696
0.110762
0.017501
-0.083898
-0.192901
-0.279611
-0.326681
-0.361799
-0.351109
-0.318721
-0.25863
-0.146956
-0.051524
0.049599
0.151476
0.229021
0.280017
0.309001
0.302147
0.272373
0.214748
0.112922
0.012316
-0.084935
-0.191507
-0.273309
-0.314189
-0.353036
-0.345422
-0.319243
-0.263573
-0.164503
-0.073935
0.030388
0.143033
0.231159
0.280983
0.319136
0.305199
0.265833
0.216788
0.104893
0.017866
-0.069619
-0.179749
-0.257583
-0.311517
-0.351333
-0.347658
-0.323167
-0.280137
-0.169275
-0.062578
0.044187
0.137538
0.21842
0.26967
0.318391
0.306417
0.274096
0.215788
0.110299
0.015777
-0.080674
-0.1844
-0.272597
-0.320602
-0.356367
-0.35879
-0.326422
-0.26535
-0.158664
-0.06063
0.039314
0.143905
0.221106
0.26711
0.321301
0.307882
0.271757
0.222425
0.117799
0.019758
-0.074135
-0.182826
-0.270166
-0.319697
-0.359074
-0.343706
-0.307366
-0.255505
-0.166404
-0.072603
0.03688
0.146422
0.215646
0.250923
0.285968
0.300811
0.309512
0.255915
0.133806
0.04643
-0.069307
-0.172335
-0.257294
-0.308125
-0.346048
-0.339341
-0.311473
-0.261113
-0.153454
-0.050749
0.032738
0.146772
0.236302
0.285915
0.324234
0.324965
0.276662
0.221024
0.11749
0.030108
-0.066696
-0.181834
-0.257513
-0.290496
-0.337547
-0.336364
-0.311725
-0.267598
-0.16144
-0.06915
0.021557
0.127491
0.216237
0.267389
0.318665
0.31271
0.289955
0.242621
0.144083
0.060786
-0.035226
-0.149806
-0.24126
-0.295517
-0.357949
-0.342652
-0.316413
-0.260005
-0.163752
-0.072657
0.01908
0.129115
0.214523
0.275012
0.333217
0.329506
0.308672
0.259891
0.158843
0.064761
-0.026068
-0.13389
-0.219836
-0.275647
-0.324269
-0.320403
-0.295622
-0.247834
-0.13488
-0.038005
0.062649
0.179528
0.255885
0.312819
0.361196
0.353012
0.322862
0.275454
0.172578
0.086753
-0.019158
-0.127829
-0.218281
-0.27648
-0.335238
-0.32613
-0.297099
-0.248113
-0.135112
-0.040494
0.061857
0.175126
0.257659
0.306021
0.345586
0.33504
0.310688
0.263474
0.164959
0.070164
-0.017713
-0.133402
-0.215947
-0.282259
-0.35281
-0.347414
-0.313569
-0.252915
-0.164256
-0.062656
0.028164
0.138359
0.234546
0.302133
0.347655
0.354945
0.340858
0.292886
0.192174
0.095488
0.000338
-0.111604
-0.204476
-0.275636
-0.330531
-0.338155
-0.307374
-0.263331
-0.163079
-0.078692
0.01852
0.136294
0.232408
0.307385
0.368182
0.368897
0.336826
0.29528
0.19648
0.091444
-0.003686
-0.106275
-0.207858
-0.26554
-0.331762
-0.329112
-0.297351
-0.261216
-0.16561
-0.06969
0.022845
0.132421
0.232061
0.294616
0.354579
0.349717
0.338173
0.293458
0.192738
0.103475
0.006163
-0.104744
-0.20202
-0.262422
-0.317539
-0.312901
-0.290686
-0.249576
-0.153871
-0.068699
0.015437
0.12175
0.203834
0.283186
0.330243
0.34131
0.344945
0.307467
0.215947
0.115237
0.019639
-0.098839
-0.201006
-0.268049
-0.319616
-0.326793
-0.309329
-0.267292
-0.170008
-0.083617
0.006662
0.107938
0.212867
0.284414
0.340995
0.355046
0.337067
0.274293
0.178159
0.083827
-0.014254
-0.108314
-0.203471
-0.267702
-0.325178
-0.322823
-0.312276
-0.275788
-0.178878
-0.093339
-0.000417
0.104745
0.202943
0.279904
0.336654
0.333841
0.320899
0.282773
0.192232
0.103538
0.005529
-0.096394
-0.174356
-0.253244
-0.317318
-0.321489
-0.299184
-0.250211
-0.173038
-0.088494
0.007617
0.108486
0.205699
0.273234
0.325104
0.327347
0.307553
0.280331
0.207499
0.120257
0.022795
-0.080564
-0.178614
-0.254208
-0.313768
-0.321666
-0.310143
-0.2703
-0.184969
-0.091988
-0.001859
0.110026
0.207336
0.283403
0.332291
0.350981
0.343612
0.305494
0.222414
0.125565
0.03375
-0.070292
-0.165077
-0.248066
-0.30137
-0.314255
-0.29154
-0.249445
-0.194988
-0.11496
-0.026525
0.095798
0.209788
0.290588
0.341802
0.348964
0.345504
0.309492
0.234287
0.121454
0.026861
-0.067889
-0.169125
-0.255695
-0.317064
-0.331856
-0.317737
-0.278863
-0.190231
-0.102994
-0.014036
0.100506
0.197488
0.274306
0.32026
0.346564
0.348518
0.314191
0.23949
0.131603
0.032791
-0.060093
-0.141281
-0.205052
-0.265068
-0.307295
-0.306057
-0.281845
-0.214618
-0.110519
-0.017872
0.079786
0.196945
0.283934
0.34409
0.363623
0.349248
0.31139
0.249926
0.142506
0.045432
-0.06116
-0.165354
-0.24962
-0.295831
-0.321937
-0.316043
-0.267501
-0.191374
-0.103353
-0.012654
0.087204
0.191876
0.27556
0.326064
0.34998
0.348295
0.304567
0.245874
0.130718
0.041969
-0.066758
-0.167683
-0.256518
-0.303632
-0.337922
-0.330665
-0.289707
-0.235762
-0.125567
-0.028366
0.075766
0.175099
0.258791
0.302051
0.324324
0.316977
0.282352
0.223466
0.121601
0.029289
-0.085716
-0.190045
-0.266906
-0.320915
-0.363156
-0.348418
-0.314501
-0.250853
-0.150159
-0.049581
0.045863
0.154721
0.227882
0.294494
0.324804
0.311616
0.288717
0.227981
0.11157
0.018437
-0.082362
-0.197456
-0.27609
-0.316802
-0.346889
-0.356128
-0.328016
-0.272707
-0.154195
-0.062843
0.031552
0.140595
0.208444
0.263171
0.301368
0.304658
0.271426
0.206978
0.114269
0.031902
-0.068988
-0.169836
-0.265776
-0.319125
-0.356972
-0.347444
-0.319359
-0.253855
-0.14432
-0.056902
0.031982
0.141912
0.23279
0.27932
0.319847
0.320325
0.286995
0.235826
0.131103
0.040945
-0.05735
-0.15366
-0.233608
-0.288366
-0.318765
-0.312145
-0.294593
-0.238186
-0.131669
-0.038454
0.053509
0.147675
0.232877
0.283391
0.327969
0.331612
0.301842
0.251576
0.157937
0.068093
-0.025258
-0.1428
-0.214575
-0.269844
-0.319796
-0.325976
-0.300486
-0.235266
-0.125859
-0.031821
0.057987
0.157966
0.234391
0.287535
0.333547
0.33316
0.309672
0.25365
0.150483
0.06198
-0.028073
-0.140234
-0.222169
-0.277133
-0.319539
-0.316316
-0.291547
-0.252744
-0.152224
-0.054488
0.052702
0.165067
0.246463
0.311286
0.360797
0.361554
0.333795
0.282124
0.171909
0.068774
-0.035043
-0.133634
-0.206125
-0.273962
-0.320141
-0.313982
-0.29092
-0.234723
-0.14542
-0.04837
0.059927
0.166716
0.25379
0.306037
0.363324
0.368063
0.347141
0.293174
0.173365
0.067589
-0.031508
-0.125285
-0.20681
-0.264782
-0.309286
-0.312632
-0.294891
-0.245026
-0.147945
-0.047371
0.036107
0.155197
0.242766
0.299456
0.348429
0.34161
0.317046
0.281252
0.182869
0.080745
-0.012325
-0.116979
-0.215551
-0.275486
-0.320114
-0.311128
-0.297576
-0.240901
-0.144114
-0.04285
0.056025
0.162871
0.238856
0.301482
0.35745
0.355004
0.337162
0.301133
0.193769
0.104198
0.004236
-0.113853
-0.200386
-0.268905
-0.323436
-0.325651
-0.29756
-0.258657
-0.159411
-0.047403
0.052031
0.164005
0.252877
0.317107
0.368353
0.368481
0.343937
0.287445
0.190467
0.091379
0.000629
-0.120388
-0.205545
-0.264285
-0.320017
-0.322057
-0.293705
-0.240246
-0.128306
-0.037407
0.059777
0.172634
0.259771
0.315073
0.37382
0.364678
0.33947
0.286643
0.177551
0.095559
-0.00228
-0.107729
-0.19476
-0.259823
-0.315578
-0.320408
-0.290606
-0.246045
-0.149515
-0.056278
0.036648
0.146322
0.238807
0.305313
0.36672
0.36071
0.344254
0.30092
0.206625
0.108498
0.016564
-0.102804
-0.190406
-0.258603
-0.308457
-0.306778
-0.284192
-0.252573
-0.147457
-0.060052
0.036695
0.146276
0.239784
0.300581
0.356311
0.355596
0.343842
0.31341
0.221762
0.126527
0.031603
-0.096314
-0.189293
-0.247385
-0.298054
-0.279475
-0.253903
-0.239321
-0.160445
-0.071818
0.029315
0.133889
0.233513
0.309125
0.374799
0.370009
0.346506
0.301932
0.227425
0.124359
0.026977
-0.078089
-0.173032
-0.24617
-0.303632
-0.296872
-0.274137
-0.246362
-0.155505
-0.070167
0.018811
0.142708
0.248014
0.309275
0.356561
0.368479
0.344024
0.317118
0.232923
0.136625
0.035822
-0.080178
-0.167989
-0.237624
-0.295302
-0.303413
-0.292122
-0.251558
-0.162985
-0.069887
0.017706
0.128583
0.216818
0.303942
0.357388
0.367435
0.346644
0.305911
0.218851
0.13378
0.043649
-0.074287
-0.173563
-0.244892
-0.306244
-0.305634
-0.29374
-0.261821
-0.171201
-0.065521
0.043122
0.174054
0.266313
0.321945
0.377813
0.376412
0.352736
0.320382
0.230794
0.142263
0.048361
-0.070057
-0.167875
-0.226233
-0.283102
-0.293026
-0.296858
-0.261117
-0.176432
-0.086587
0.018394
0.135765
0.237425
0.323418
0.374695
0.386381
0.362442
0.315755
0.244088
0.147324
0.059311
-0.052188
-0.143567
-0.200814
-0.25962
-0.269546
-0.272261
-0.238815
-0.163716
-0.074161
0.010385
0.110413
0.212933
0.292834
0.350003
0.369953
0.360594
0.323925
0.243557
0.1459
0.048699
-0.06308
-0.16117
-0.236914
-0.288227
-0.318305
-0.308926
-0.261008
-0.182382
-0.072338
0.017942
0.120308
0.223177
0.299189
0.351061
0.371648
0.36872
0.332039
0.251273
0.148153
0.055419
-0.04432
-0.138104
-0.219496
-0.275092
-0.303789
-0.277279
-0.251947
-0.188371
-0.090914
0.006952
0.119644
0.235335
0.302543
0.337356
0.369682
0.368387
0.322634
0.254891
0.150256
0.05724
-0.055934
-0.164572
-0.239308
-0.27906
-0.307878
-0.301205
-0.270875
-0.191568
-0.0931
-0.000062
0.104619
0.209709
0.287702
0.329188
0.348003
0.347826
0.309892
0.244882
0.141196
0.035985
-0.062733
-0.157954
-0.22427
-0.277701
-0.320221
-0.31984
-0.292203
-0.223424
-0.114725
-0.027281
0.079339
0.187883
0.275755
0.33342
0.35066
0.334603
0.303756
0.249822
0.147363
0.058257
-0.046079
-0.149233
-0.236499
-0.282504
-0.330213
-0.312171
-0.265973
-0.203558
-0.101096
-0.009352
0.090283
0.181218
0.262292
0.31481
0.366466
0.35588
0.318155
0.245805
0.147073
0.066363
-0.040474
-0.14784
-0.225178
-0.273137
-0.313936
-0.30732
-0.271965
-0.21775
-0.111056
-0.022756
0.080334
0.196819
0.272284
0.322411
0.359217
0.351189
0.329642
0.277086
0.169291
0.080083
-0.021698
-0.133129
-0.221308
-0.26372
-0.308124
-0.301827
-0.27393
-0.221378
-0.109814
-0.013602
0.089302
0.200513
0.288583
0.332513
0.367505
0.356148
0.332454
0.291875
0.193208
0.098911
-0.006995
-0.110139
-0.202728
-0.259718
-0.298496
-0.301205
-0.269313
-0.205505
-0.106589
-0.024139
0.083821
0.2076
0.281567
0.32757
0.363676
0.362572
0.333818
0.295943
0.193396
0.089346
-0.004947
-0.112023
-0.190492
-0.248156
-0.29697
-0.300945
-0.270041
-0.219214
-0.106257
-0.00794
0.084009
0.193612
0.276818
0.334997
0.378695
0.375283
0.343367
0.279243
0.178214
0.10202
0.008485
-0.093921
-0.19429
-0.251484
-0.299084
-0.281492
-0.245779
-0.198246
-0.100003
-0.011452
0.083697
0.192172
0.273924
0.346593
0.388293
0.391059
0.360621
0.301833
0.19765
0.106666
0.00666
-0.11261
-0.182956
-0.24204
-0.288663
-0.273852
-0.248589
-0.203349
-0.090442
-0.003014
0.084836
0.184546
0.271409
0.337932
0.396606
0.390012
0.361539
0.319209
0.216809
0.117292
0.025761
-0.086816
-0.154876
-0.219004
-0.277883
-0.282806
-0.266523
-0.216952
-0.108882
-0.017933
0.073765
0.180361
0.266256
0.337899
0.396913
0.384703
0.356824
0.311001
0.196161
0.104226
0.017862
-0.08552
-0.166737
-0.233064
-0.286985
-0.281664
-0.269531
-0.218535
-0.112227
-0.024932
0.077849
0.191332
0.270886
0.335725
0.38821
0.373112
0.366189
0.31623
0.214532
0.112739
0.022244
-0.082026
-0.164284
-0.232497
-0.284526
-0.274899
-0.246355
-0.206968
-0.104743
-0.031895
0.067949
0.185091
0.281062
0.340228
0.396617
0.396605
0.371559
0.32293
0.219665
0.125856
0.03123
-0.071274
-0.158834
-0.220737
-0.273169
-0.25157
-0.223794
-0.185246
-0.108703
-0.022828
0.06253
0.170196
0.251485
0.324637
0.391904
0.399107
0.373792
0.330894
0.230222
0.137735
0.042313
-0.062261
-0.143537
-0.205526
-0.265733
-0.271076
-0.248655
-0.205744
-0.104309
-0.016785
0.070059
0.165626
0.26488
0.32686
0.385131
0.395985
0.375543
0.326792
0.225203
0.14244
0.056948
-0.051624
-0.137907
-0.209478
-0.270703
-0.270816
-0.25563
-0.217049
-0.112123
-0.015186
0.087211
0.1872
0.279038
0.331647
0.378951
0.397537
0.380842
0.346621
0.247396
0.164417
0.064594
-0.050388
-0.139546
-0.202859
-0.262444
-0.267503
-0.250789
-0.216636
-0.116337
-0.019106
0.086593
0.191064
0.287151
0.348614
0.401216
0.407496
0.396155
0.356128
0.251025
0.164767
0.058123
-0.049665
-0.13992
-0.19478
-0.245267
-0.259842
-0.252005
-0.2378
-0.143569
-0.023565
0.082494
0.187146
0.27374
0.324795
0.382387
0.400144
0.383086
0.34036
0.261109
0.163216
0.074475
-0.026067
-0.126151
-0.211356
-0.282548
-0.281248
-0.264889
-0.216365
-0.121645
-0.033025
0.0744
0.173838
0.261971
0.349947
0.404174
0.41433
0.396089
0.358038
0.257211
0.172613
0.077887
-0.02244
-0.105212
-0.184366
-0.242021
-0.260359
-0.243919
-0.218164
-0.144271
-0.040558
0.048753
0.160801
0.25199
0.324569
0.387432
0.400672
0.385681
0.348604
0.262414
0.170969
0.077685
-0.03638
-0.133731
-0.198831
-0.259566
-0.273563
-0.263327
-0.215561
-0.13533
-0.038456
0.052092
0.173716
0.283124
0.346691
0.397664
0.410619
0.401942
0.376417
0.286492
0.19017
0.093519
-0.014247
-0.115992
-0.191154
-0.255814
-0.2806
-0.258805
-0.208336
-0.146828
-0.044567
0.066342
0.172602
0.254561
0.324661
0.384865
0.400452
0.389739
0.342488
0.2609
0.183609
0.096851
-0.006486
-0.097207
-0.172115
-0.218029
-0.269158
-0.271093
-0.25283
-0.178172
-0.076478
0.029331
0.13864
0.239624
0.323955
0.377126
0.398831
0.385567
0.34785
0.272573
0.173792
0.077319
-0.028137
-0.127184
-0.206794
-0.257909
-0.284035
-0.271515
-0.22586
-0.160478
-0.066159
0.04389
0.16194
0.249349
0.318874
0.374221
0.397091
0.378982
0.346131
0.281919
0.180717
0.103477
-0.009935
-0.118396
-0.205743
-0.240438
-0.276494
-0.28043
-0.244811
-0.166425
-0.073123
0.028918
0.129803
0.239852
0.340161
0.402825
0.424997
0.40216
0.361375
0.300162
0.199389
0.108728
0.002088
-0.115542
-0.198311
-0.25353
-0.292601
-0.28332
-0.247675
-0.183874
-0.081861
0.014576
0.123148
0.226044
0.30299
0.349189
0.390862
0.377273
0.349346
0.278838
0.175578
0.084347
-0.019724
-0.123965
-0.216167
-0.250703
-0.284955
-0.297504
-0.262617
-0.183214
-0.086791
0.00542
0.094853
0.183131
0.267252
0.327155
0.37935
0.372066
0.326641
0.260657
0.170302
0.072993
-0.037882
-0.146956
-0.211178
-0.262073
-0.309628
-0.302615
-0.270404
-0.218414
-0.11375
-0.009572
0.09319
0.20168
0.287773
0.355248
0.381664
0.368855
0.340168
0.286335
0.180955
0.09452
0.006983
-0.09114
-0.185042
-0.245159
-0.284177
-0.275856
-0.243376
-0.194644
-0.085445
-0.000082
0.093602
0.213656
0.314795
0.3507
0.382698
0.39226
0.373785
0.307605
0.19867
0.085235
-0.014305
-0.116974
-0.193802
-0.248942
-0.293996
-0.293907
-0.266354
-0.221009
-0.108949
-0.014395
0.085315
0.185849
0.279103
0.331306
0.371797
0.369702
0.340138
0.292136
0.179481
0.088004
0.004078
-0.102383
-0.182317
-0.233134
-0.29449
-0.289396
-0.263123
-0.215865
-0.119508
-0.010713
0.094956
0.201116
0.272612
0.334498
0.376524
0.387478
0.359442
0.311838
0.211161
0.115811
0.03396
-0.061917
-0.149555
-0.215034
-0.280418
-0.287475
-0.253522
-0.185872
-0.066178
0.011128
0.080931
0.191231
0.273884
0.333926
0.395218
0.397553
0.36562
0.310584
0.224396
0.127407
0.020598
-0.084439
-0.180242
-0.24619
-0.286607
-0.28609
-0.259873
-0.208038
-0.099934
-0.012293
0.072158
0.168171
0.259325
0.326862
0.381413
0.386391
0.355332
0.311278
0.209925
0.117068
0.018214
-0.098128
-0.167241
-0.219275
-0.271377
-0.266052
-0.230085
-0.185826
-0.0943
-0.024035
0.07742
0.197223
0.27926
0.337869
0.397714
0.37481
0.340348
0.282553
0.196364
0.107364
0.016422
-0.092474
-0.17953
-0.230032
-0.277695
-0.279852
-0.253597
-0.205096
-0.106406
-0.002467
0.095659
0.20238
0.281818
0.340997
0.411056
0.417535
0.39839
0.338274
0.228519
0.139028
0.037764
-0.05585
-0.145268
-0.214902
-0.271365
-0.283422
-0.258694
-0.203147
-0.091582
0.009736
0.101328
0.223402
0.323138
0.372245
0.422876
0.410163
0.3928
0.356467
0.271862
0.165493
0.071422
-0.057559
-0.151742
-0.222213
-0.284931
-0.291556
-0.258286
-0.202459
-0.118739
-0.030986
0.057261
0.175115
0.273816
0.343324
0.395489
0.385907
0.357944
0.324398
0.228398
0.136107
0.035011
-0.067197
-0.148221
-0.216993
-0.272445
-0.271509
-0.262368
-0.237465
-0.143998
-0.053964
0.045094
0.162535
0.250388
0.333508
0.387186
0.38174
0.359065
0.313923
0.219072
0.129453
0.036847
-0.079337
-0.152979
-0.219949
-0.28927
-0.293245
-0.257444
-0.214733
-0.106512
-0.006529
0.085023
0.176395
0.280582
0.338425
0.393963
0.40179
0.383414
0.355588
0.250543
0.15349
0.041774
-0.066122
-0.154707
-0.199388
-0.241098
-0.248951
-0.244567
-0.199625
-0.103362
-0.01376
0.081474
0.190368
0.276442
0.349244
0.405384
0.406589
0.391894
0.357714
0.252536
0.153369
0.050215
-0.062172
-0.149339
-0.213411
-0.27021
-0.284274
-0.261448
-0.225017
-0.126768
-0.042954
0.049315
0.159253
0.246176
0.316286
0.381814
0.396395
0.376597
0.334849
0.24333
0.145816
0.057841
-0.030031
-0.126631
-0.202869
-0.277845
-0.278683
-0.245778
-0.206633
-0.123066
-0.053244
0.023285
0.142949
0.239615
0.302977
0.370511
0.377535
0.35891
0.322341
0.245192
0.144795
0.049535
-0.047424
-0.137922
-0.218783
-0.278137
-0.276121
-0.262194
-0.233273
-0.141685
-0.041083
0.060667
0.160096
0.259891
0.33609
0.385334
0.395522
0.385325
0.346516
0.268536
0.170243
0.073317
-0.031662
-0.128512
-0.191342
-0.250249
-0.255272
-0.238482
-0.19952
-0.124076
-0.027521
0.062435
0.151627
0.251435
0.324301
0.372782
0.389585
0.372292
0.343904
0.273243
0.173866
0.061308
-0.046756
-0.136783
-0.206922
-0.250462
-0.26261
-0.248459
-0.205038
-0.136881
-0.039867
0.050299
0.146266
0.245284
0.312698
0.34483
0.362121
0.353121
0.327837
0.269141
0.175802
0.089399
-0.019948
-0.133796
-0.194068
-0.228197
-0.251911
-0.246499
-0.208129
-0.138238
-0.044183
0.045881
0.146467
0.26202
0.354148
0.399855
0.423789
0.380752
0.340642
0.27128
0.168183
0.091066
-0.007928
-0.102104
-0.177123
-0.246294
-0.261133
-0.238306
-0.19647
-0.131659
-0.032955
0.05665
0.153744
0.239684
0.312147
0.365631
0.385211
0.377779
0.341306
0.278229
0.173516
0.062786
-0.027445
-0.111275
-0.186583
-0.240892
-0.274354
-0.267341
-0.234674
-0.167781
-0.070571
0.024221
0.119485
0.206421
0.284006
0.339777
0.367852
0.354409
0.332548
0.27256
0.180747
0.087648
-0.022177
-0.132285
-0.215232
-0.276828
-0.3024
-0.284245
-0.250492
-0.192222
-0.0886
-0.004951
0.089384
0.181118
0.265328
0.321754
0.354518
0.350036
0.319086
0.25165
0.141365
0.045532
-0.04495
-0.156761
-0.232335
-0.285579
-0.317048
-0.320101
-0.282408
-0.224878
-0.108932
-0.002591
0.088687
0.179857
0.27528
0.340333
0.372511
0.358584
0.323033
0.269879
0.172958
0.085775
-0.015142
-0.124163
-0.196412
-0.244836
-0.275409
-0.264744
-0.230415
-0.175769
-0.087431
0.00989
0.126728
0.216461
0.27645
0.317667
0.364712
0.358567
0.332902
0.279017
0.16957
0.083506
-0.005515
-0.102302
-0.184788
-0.243372
-0.268781
-0.265708
-0.24122
-0.201175
-0.110261
-0.022032
0.076811
0.178338
0.265961
0.320613
0.364238
0.372615
0.334533
0.276891
0.180617
0.083262
-0.01804
-0.116285
-0.198929
-0.255821
-0.29609
-0.297837
-0.277663
-0.206569
-0.110037
-0.027371
0.065712
0.164748
0.252989
0.326809
0.377337
0.37401
0.349042
0.290578
0.183393
0.0895
-0.011943
-0.122396
-0.20597
-0.245965
-0.284748
-0.289021
-0.243892
-0.196177
-0.104759
-0.017585
0.06363
0.161921
0.261203
0.313353
0.367105
0.360971
0.333436
0.272773
0.154831
0.083046
-0.008695
-0.114642
-0.190191
-0.236275
-0.293485
-0.284107
-0.262103
-0.218442
-0.128509
-0.034028
0.071943
0.177817
0.251112
0.308628
0.361367
0.365509
0.334791
0.286181
0.187569
0.095309
0.019451
-0.080512
-0.162975
-0.211342
-0.264768
-0.271375
-0.259345
-0.2097
-0.107404
-0.013637
0.08668
0.198771
0.272701
0.318504
0.367748
0.354878
0.315736
0.276243
0.178587
0.093124
-0.001102
-0.09471
-0.17873
-0.234396
-0.272251
-0.26139
-0.231365
-0.199416
-0.109796
-0.036905
0.038314
0.155014
0.241138
0.298374
0.345442
0.335935
0.301331
0.25276
0.151689
0.063202
-0.006449
-0.100456
-0.188297
-0.225534
-0.271656
-0.276452
-0.261752
-0.21804
-0.117141
-0.015511
0.074539
0.175816
0.260846
0.321249
0.352531
0.343829
0.328174
0.274045
0.183716
0.100758
0.02925
-0.073618
-0.157566
-0.221572
-0.271676
-0.273907
-0.245087
-0.209979
-0.119993
-0.025497
0.068563
0.174226
0.256394
0.303871
0.352532
0.362409
0.347777
0.293673
0.196079
0.132236
0.030926
-0.084531
-0.178438
-0.23343
-0.273899
-0.276266
-0.268076
-0.220852
-0.11931
-0.036403
0.052314
0.157531
0.237124
0.296064
0.354173
0.353139
0.335548
0.301145
0.202924
0.116664
0.037873
-0.067175
-0.161335
-0.221345
-0.260256
-0.266379
-0.258558
-0.225818
-0.140648
-0.058839
0.028874
0.139994
0.212008
0.292613
0.341944
0.34355
0.32251
0.29748
0.209527
0.113565
0.002357
-0.102714
-0.189957
-0.247542
-0.293781
-0.296031
-0.258332
-0.217644
-0.132548
-0.059838
0.037626
0.131214
0.208894
0.278629
0.330943
0.323396
0.314865
0.279649
0.200189
0.111483
0.023257
-0.085583
-0.163632
-0.222888
-0.290706
-0.299396
-0.295591
-0.236517
-0.138287
-0.055564
0.041473
0.137516
0.22421
0.300461
0.354388
0.356912
0.323783
0.278348
0.196615
0.108787
0.016464
-0.069021
-0.159129
-0.214451
-0.259501
-0.250981
-0.244693
-0.228344
-0.155074
-0.06642
0.025992
0.141136
0.23542
0.304815
0.351443
0.354695
0.332751
0.295215
0.229799
0.149709
0.052435
-0.054264
-0.133571
-0.20349
-0.252981
-0.26584
-0.246736
-0.206366
-0.134953
-0.053318
0.042951
0.147466
0.231832
0.28991
0.335129
0.342764
0.325841
0.288367
0.213909
0.11298
0.045921
-0.071346
-0.163344
-0.237762
-0.277044
-0.279779
-0.265622
-0.227626
-0.143645
-0.054361
0.033384
0.133721
0.220634
0.282259
0.345056
0.345933
0.314047
0.286732
0.224831
0.133415
0.054048
-0.035963
-0.099985
-0.174929
-0.241816
-0.276778
-0.270903
-0.228717
-0.129843
-0.049979
0.029519
0.142531
0.243476
0.299134
0.338924
0.344219
0.353328
0.318865
0.237963
0.135568
0.042246
-0.062059
-0.136236
-0.192864
-0.254394
-0.277249
-0.266114
-0.235272
-0.157146
-0.052747
0.030864
0.109763
0.188721
0.257772
0.318923
0.353796
0.343997
0.299405
0.219981
0.133403
0.048161
-0.063189
-0.156586
-0.224494
-0.272475
-0.286761
-0.260248
-0.244473
-0.194589
-0.102572
0.007414
0.101115
0.195093
0.283605
0.334722
0.33407
0.312645
0.294435
0.23125
0.143673
0.062941
-0.028479
-0.133418
-0.231982
-0.270221
-0.286755
-0.275772
-0.245486
-0.182502
-0.084382
0.016756
0.122892
0.215352
0.273909
0.319125
0.340691
0.345026
0.307696
0.237934
0.14972
0.055638
-0.025362
-0.10892
-0.194129
-0.240665
-0.26438
-0.258728
-0.228877
-0.163166
-0.06831
0.020537
0.103059
0.197886
0.280152
0.321764
0.345448
0.344564
0.310739
0.249382
0.173329
0.088585
-0.016568
-0.111102
-0.194483
-0.251901
-0.283794
-0.264358
-0.219075
-0.176079
-0.101322
-0.006806
0.095198
0.196263
0.289699
0.334843
0.351266
0.339918
0.304314
0.246665
0.155132
0.086697
-0.012809
-0.125274
-0.197035
-0.234514
-0.266646
-0.259321
-0.241731
-0.188351
-0.085005
-0.000459
0.082153
0.180827
0.263421
0.324202
0.347428
0.346627
0.317502
0.269697
0.172135
0.089902
-0.001635
-0.097943
-0.174026
-0.223943
-0.270858
-0.256339
-0.209688
-0.149247
-0.055344
0.012633
0.101427
0.201083
0.271985
0.310007
0.347069
0.35056
0.316212
0.265838
0.166435
0.088494
-0.002721
-0.106049
-0.173874
-0.216696
-0.253983
-0.245881
-0.213945
-0.16954
-0.073637
0.022328
0.109758
0.195592
0.261436
0.307418
0.322933
0.333199
0.312045
0.286045
0.184276
0.099244
-0.002119
-0.109067
-0.180447
-0.224071
-0.252287
-0.2545
-0.233649
-0.182095
-0.098898
-0.012352
0.08508
0.189847
0.249538
0.29398
0.316152
0.319867
0.300955
0.246652
0.160177
0.076936
-0.003447
-0.088593
-0.150219
-0.216912
-0.270826
-0.262646
-0.228607
-0.179195
-0.099894
-0.01235
0.069761
0.168778
0.235853
0.287614
0.323432
0.315927
0.284648
0.243083
0.144328
0.075049
-0.003479
-0.10184
-0.171557
-0.205834
-0.243131
-0.243838
-0.218912
-0.16685
-0.068227
0.000185
0.088553
0.169262
0.229901
0.282958
0.334503
0.330921
0.300485
0.260993
0.172113
0.091896
-0.005455
-0.097064
-0.156427
-0.197545
-0.2356
-0.230121
-0.208485
-0.171429
-0.084741
-0.000849
0.081981
0.170739
0.244066
0.287986
0.327036
0.327699
0.304088
0.273215
0.191108
0.100193
-0.002684
-0.074135
-0.12296
-0.172262
-0.244637
-0.231575
-0.221293
-0.20391
-0.101688
-0.003574
0.083119
0.184036
0.253166
0.287634
0.329059
0.318761
0.286507
0.250356
0.17168
0.102557
0.031138
-0.064263
-0.141239
-0.187009
-0.229927
-0.224346
-0.210815
-0.164347
-0.069805
0.005629
0.070993
0.173602
0.23957
0.283954
0.338701
0.322593
0.312102
0.273068
0.189589
0.127993
0.055211
-0.066125
-0.148069
-0.200634
-0.2367
-0.235129
-0.221025
-0.189612
-0.092923
-0.004644
0.064009
0.145299
0.232005
0.278721
0.331375
0.338937
0.32069
0.284771
0.204532
0.129841
0.037588
-0.058912
-0.131243
-0.194731
-0.252259
-0.263509
-0.231335
-0.174962
-0.098253
-0.024535
0.039193
0.137133
0.226851
0.289218
0.344835
0.339026
0.318633
0.272606
0.180822
0.120798
0.038789
-0.067009
-0.132059
-0.185271
-0.222982
-0.204653
-0.186382
-0.171646
-0.098923
-0.019633
0.058369
0.142933
0.222244
0.279778
0.346269
0.346821
0.314515
0.275862
0.201146
0.128836
0.043142
-0.064955
-0.141741
-0.198038
-0.236921
-0.242524
-0.21689
-0.17622
-0.099193
-0.027714
0.052095
0.140973
0.209947
0.271789
0.319838
0.319396
0.308574
0.273241
0.206112
0.126134
0.050448
-0.077142
-0.149556
-0.194188
-0.243978
-0.227645
-0.227702
-0.175629
-0.089679
-0.0335
0.045141
0.132683
0.223183
0.291346
0.3496
0.339227
0.331617
0.304477
0.224186
0.139043
0.051328
-0.042643
-0.115777
-0.168839
-0.224544
-0.235986
-0.224514
-0.175371
-0.088964
-0.021157
0.056375
0.140573
0.234456
0.306232
0.350699
0.359923
0.349987
0.296316
0.195565
0.102271
0.041998
-0.053844
-0.139097
-0.189204
-0.234274
-0.242528
-0.225725
-0.188526
-0.116114
-0.03145
0.048314
0.147367
0.224913
0.298632
0.346514
0.358333
0.350667
0.318362
0.231183
0.14874
0.064974
-0.030129
-0.119754
-0.180385
-0.222165
-0.232214
-0.212828
-0.174427
-0.095387
-0.03273
0.046039
0.13848
0.208421
0.270638
0.320683
0.332036
0.337032
0.306027
0.2547
0.160372
0.073103
-0.020543
-0.109957
-0.18588
-0.233493
-0.229401
-0.205428
-0.171664
-0.119908
-0.038232
0.033244
0.125036
0.205753
0.273705
0.349274
0.36285
0.341
0.291237
0.234887
0.15515
0.063731
-0.029631
-0.107636
-0.185059
-0.23161
-0.24284
-0.220741
-0.188364
-0.117744
-0.043094
0.028979
0.140184
0.230756
0.302074
0.342024
0.343996
0.328116
0.288593
0.226114
0.174421
0.083924
-0.018548
-0.117374
-0.192062
-0.225492
-0.25836
-0.245394
-0.216668
-0.141825
-0.059227
0.022839
0.132643
0.215282
0.292103
0.328049
0.344846
0.340371
0.305446
0.25308
0.156886
0.075818
-0.010814
-0.109973
-0.196573
-0.254226
-0.269615
-0.245278
-0.216222
-0.151681
-0.0563
0.039942
0.133751
0.206053
0.278272
0.315308
0.342992
0.335276
0.314486
0.253498
0.157635
0.082924
-0.006385
-0.107265
-0.176284
-0.236178
-0.249957
-0.236684
-0.199574
-0.144266
-0.048158
0.043155
0.146486
0.212284
0.256559
0.299556
0.312909
0.333205
0.305632
0.243108
0.146131
0.059699
-0.034999
-0.127214
-0.18819
-0.226708
-0.258597
-0.243437
-0.20958
-0.141453
-0.071126
0.01056
0.105887
0.18176
0.253035
0.297436
0.32995
0.31731
0.293822
0.254734
0.156817
0.073651
-0.019787
-0.12082
-0.186545
-0.227519
-0.259595
-0.245851
-0.223857
-0.175839
-0.093303
-0.005793
0.092876
0.19987
0.265935
0.309648
0.349892
0.34429
0.313503
0.270644
0.184244
0.092992
0.001079
-0.097413
-0.175474
-0.217485
-0.27566
-0.262113
-0.224596
-0.157157
-0.096581
-0.014345
0.080046
0.170993
0.248286
0.287403
0.332524
0.327391
0.290522
0.246528
0.160963
0.093587
-0.003242
-0.104868
-0.16611
-0.196743
-0.240782
-0.251177
-0.226055
-0.175516
-0.071907
-0.010851
0.094151
0.170208
0.250422
0.290193
0.330807
0.321327
0.289357
0.249914
0.154057
0.079438
-0.024969
-0.117299
-0.18666
-0.226896
-0.261158
-0.249018
-0.219053
-0.173045
-0.088769
0.001314
0.083992
0.173853
0.235611
0.293928
0.322274
0.316685
0.29412
0.253526
0.153429
0.070236
-0.001256
-0.103427
-0.189338
-0.236741
-0.277435
-0.254768
-0.230176
-0.192857
-0.091156
-0.009865
0.080883
0.159889
0.230462
0.280316
0.334557
0.338808
0.308356
0.258238
0.15922
0.092909
0.013683
-0.087786
-0.161684
-0.217178
-0.253101
-0.250636
-0.234982
-0.200867
-0.123039
-0.032175
0.059258
0.154628
0.227564
0.270225
0.302281
0.310818
0.305546
0.263764
0.167439
0.077532
0.018295
-0.085004
-0.154556
-0.206002
-0.281599
-0.279334
-0.258782
-0.203457
-0.095558
-0.014688
0.069272
0.160075
0.251432
0.278573
0.33167
0.315096
0.300606
0.259551
0.159576
0.067725
-0.014721
-0.09485
-0.160044
-0.206886
-0.256831
-0.266027
-0.24481
-0.203354
-0.114022
-0.022815
0.067132
0.154431
0.227689
0.284501
0.317534
0.31727
0.279017
0.240943
0.157643
0.07023
-0.013788
-0.105644
-0.164279
-0.209779
-0.249537
-0.251769
-0.222363
-0.179664
-0.082074
-0.013044
0.046232
0.149626
0.226773
0.264861
0.313247
0.322659
0.314659
0.251565
0.16533
0.064813
-0.004527
-0.099624
-0.166062
-0.206826
-0.253641
-0.247939
-0.227492
-0.20244
-0.116401
-0.032911
0.055765
0.14412
0.221615
0.270523
0.318027
0.320829
0.298754
0.273149
0.169823
0.083228
0.008264
-0.070561
-0.162562
-0.227309
-0.269308
-0.263214
-0.229377
-0.184516
-0.113282
-0.040741
0.023063
0.13581
0.227056
0.279953
0.304911
0.302928
0.284794
0.255681
0.170811
0.087038
0.014583
-0.080608
-0.151303
-0.203964
-0.255333
-0.263433
-0.241143
-0.201122
-0.116639
-0.04722
0.032899
0.119281
0.208627
0.260134
0.320246
0.319228
0.308551
0.275021
0.187823
0.112634
0.025208
-0.068664
-0.152772
-0.203407
-0.264866
-0.271783
-0.251025
-0.211905
-0.132108
-0.053566
0.035732
0.126489
0.203425
0.260297
0.306349
0.313224
0.298157
0.265689
0.177146
0.101853
0.022962
-0.06772
-0.13643
-0.193759
-0.259505
-0.241568
-0.226081
-0.181943
-0.121594
-0.063774
0.018559
0.116636
0.193608
0.251671
0.300602
0.319556
0.294108
0.258065
0.178843
0.103031
0.025253
-0.074556
-0.147684
-0.19326
-0.248495
-0.260288
-0.233282
-0.208165
-0.138979
-0.049664
0.02173
0.118568
0.205413
0.260627
0.311476
0.309241
0.297847
0.260684
0.174751
0.095774
0.023046
-0.066726
-0.156476
-0.225046
-0.272589
-0.268303
-0.256221
-0.195697
-0.11789
-0.04666
0.025443
0.113039
0.179885
0.236576
0.287286
0.306843
0.299125
0.254105
0.174349
0.092023
0.020613
-0.062459
-0.155109
-0.20085
-0.258056
-0.264991
-0.243814
-0.199946
-0.135155
-0.051341
0.014926
0.096318
0.192205
0.253764
0.293368
0.297181
0.299169
0.271815
0.197593
0.119364
0.043328
-0.062809
-0.126987
-0.209011
-0.247414
-0.27131
-0.25964
-0.220314
-0.152864
-0.076278
-0.004637
0.0872
0.173509
0.232669
0.281369
0.292032
0.293764
0.271078
0.194488
0.110961
0.037927
-0.054112
-0.147484
-0.208785
-0.245327
-0.262283
-0.241701
-0.209795
-0.157313
-0.076583
-0.004511
0.107263
0.179635
0.237053
0.285642
0.314134
0.31179
0.254125
0.193132
0.115302
0.034945
-0.047451
-0.125731
-0.21043
-0.25201
-0.272606
-0.257065
-0.220042
-0.177773
-0.104923
-0.000408
0.099189
0.181938
0.243464
0.288572
0.312249
0.297462
0.278181
0.223184
0.13151
0.04721
-0.03563
-0.128991
-0.210925
-0.271528
-0.281851
-0.271082
-0.234651
-0.171388
-0.08868
0.002669
0.097031
0.182301
0.247172
0.29332
0.313353
0.304683
0.256672
0.211669
0.125341
0.039092
-0.046789
-0.11981
-0.196667
-0.246921
-0.276774
-0.261498
-0.230534
-0.153353
-0.062622
0.02183
0.083401
0.159922
0.234337
0.291466
0.307105
0.294995
0.249879
0.182248
0.104159
0.025386
-0.06283
-0.152009
-0.227191
-0.260657
-0.281909
-0.273181
-0.242487
-0.191341
-0.098958
-0.030847
0.051955
0.125464
0.210398
0.255418
0.295409
0.295661
0.267886
0.219296
0.122437
0.047085
-0.04277
-0.143617
-0.208659
-0.246284
-0.276617
-0.272884
-0.243392
-0.19769
-0.095986
-0.003959
0.078801
0.159444
0.197736
0.251223
0.303877
0.305721
0.271807
0.23248
0.124807
0.063196
-0.035476
-0.12722
-0.209927
-0.257394
-0.290182
-0.29013
-0.252206
-0.195605
-0.106653
-0.033078
0.052715
0.145254
0.214224
0.263066
0.291016
0.287242
0.260016
0.214647
0.112811
0.028939
-0.031096
-0.127441
-0.200705
-0.23988
-0.276223
-0.288282
-0.263768
-0.197754
-0.096204
-0.018702
0.051127
0.127751
0.198816
0.261315
0.307629
0.31245
0.277892
0.220715
0.116576
0.032291
-0.040346
-0.124439
-0.192438
-0.231456
-0.258132
-0.251708
-0.233559
-0.163119
-0.081412
-0.029048
0.048602
0.134965
0.219458
0.27637
0.313863
0.301843
0.267501
0.218531
0.133257
0.056882
-0.036758
-0.117852
-0.185927
-0.226607
-0.263423
-0.259941
-0.239324
-0.199076
-0.110231
-0.031061
0.064895
0.152145
0.230999
0.264606
0.300967
0.294772
0.272828
0.226307
0.142628
0.07021
-0.003841
-0.097904
-0.180158
-0.21889
-0.262893
-0.267713
-0.241079
-0.19944
-0.110598
-0.04146
0.069287
0.157194
0.218336
0.266494
0.30471
0.290244
0.26458
0.232514
0.141679
0.071892
0.000654
-0.086782
-0.15968
-0.193763
-0.250894
-0.25343
-0.223219
-0.188443
-0.114756
-0.042423
0.034933
0.130358
0.20192
0.255365
0.299744
0.28756
0.264204
0.232293
0.144305
0.068839
-0.006836
-0.101333
-0.17128
-0.216243
-0.255214
-0.258354
-0.240108
-0.198056
-0.107639
-0.037529
0.055247
0.143612
0.224653
0.270441
0.311841
0.298668
0.28395
0.252628
0.162314
0.072274
-0.013697
-0.113192
-0.159335
-0.200661
-0.253941
-0.248082
-0.229592
-0.188063
-0.102771
-0.030496
0.026341
0.105133
0.187423
0.243632
0.293213
0.298355
0.269905
0.222159
0.136424
0.066447
-0.01336
-0.096636
-0.162081
-0.205666
-0.263016
-0.269164
-0.248287
-0.21065
-0.126535
-0.044152
0.045205
0.13833
0.212861
0.259419
0.297593
0.285855
0.267846
0.221336
0.11651
0.067197
-0.021382
-0.099026
-0.177074
-0.23406
-0.277148
-0.266326
-0.24404
-0.226977
-0.142209
-0.058132
0.031145
0.120969
0.191216
0.236947
0.282561
0.29163
0.267338
0.23131
0.150603
0.061116
-0.010168
-0.10116
-0.17556
-0.23438
-0.292852
-0.291927
-0.278389
-0.228719
-0.152601
-0.057824
0.017525
0.100246
0.180604
0.228521
0.261756
0.264316
0.255563
0.216133
0.146191
0.062922
-0.013933
-0.109037
-0.177086
-0.239355
-0.282248
-0.277507
-0.250722
-0.219576
-0.156725
-0.104311
-0.010858
0.081055
0.173261
0.220595
0.27077
0.279907
0.263963
0.23789
0.144736
0.054444
-0.02165
-0.123018
-0.194689
-0.258288
-0.306826
-0.305927
-0.299582
-0.254089
-0.173122
-0.086477
-0.022488
0.079817
0.167652
0.230008
0.259927
0.272406
0.259425
0.2233
0.147509
0.068157
-0.023486
-0.111149
-0.186009
-0.241907
-0.291822
-0.296612
-0.293841
-0.255295
-0.178507
-0.085463
-0.000477
0.081874
0.167273
0.217621
0.271905
0.276405
0.259722
0.225476
0.142779
0.073227
-0.004051
-0.087947
-0.17473
-0.237001
-0.281676
-0.293099
-0.284779
-0.264523
-0.185905
-0.097447
-0.012023
0.084677
0.166814
0.219526
0.280704
0.289066
0.275338
0.239725
0.170677
0.081464
-0.009397
-0.107098
-0.195947
-0.243729
-0.286863
-0.284623
-0.268061
-0.240897
-0.159809
-0.082286
-0.003154
0.074108
0.15857
0.223472
0.278116
0.291888
0.279058
0.252645
0.17476
0.092355
0.008381
-0.072693
-0.147415
-0.207783
-0.261023
-0.284009
-0.281879
-0.240714
-0.165839
-0.08941
-0.011825
0.079323
0.148662
0.211764
0.268679
0.275376
0.263228
0.2404
0.175785
0.103921
0.027623
-0.069786
-0.149086
-0.216191
-0.272027
-0.27941
-0.265693
-0.241761
-0.176934
-0.098556
-0.017128
0.072717
0.166191
0.23521
0.2824
0.283072
0.27989
0.247717
0.182478
0.099488
0.01559
-0.069744
-0.174019
-0.247835
-0.287301
-0.301357
-0.299573
-0.260539
-0.202195
-0.116015
-0.032255
0.056127
0.144703
0.214126
0.26973
0.293211
0.280884
0.254172
0.212437
0.127086
0.03777
-0.071433
-0.158234
-0.230045
-0.282428
-0.308757
-0.303224
-0.266551
-0.20965
-0.130103
-0.049445
0.036995
0.168401
0.248141
0.282945
0.283647
0.280343
0.251565
0.197167
0.115969
0.032121
-0.068271
-0.165924
-0.233051
-0.26862
-0.29896
-0.288013
-0.258669
-0.207933
-0.111899
-0.021781
0.067433
0.158895
0.229988
0.279693
0.311521
0.318262
0.302997
0.238122
0.136162
0.042666
-0.061494
-0.157288
-0.238279
-0.282575
-0.313853
-0.301382
-0.265729
-0.218711
-0.128631
-0.028646
0.057371
0.154608
0.235681
0.287127
0.307055
0.30659
0.278354
0.217732
0.127982
0.046989
-0.049316
-0.146548
-0.220364
-0.258091
-0.293037
-0.291859
-0.266978
-0.205538
-0.114509
-0.032993
0.066695
0.154824
0.231325
0.28631
0.310438
0.306515
0.285524
0.232661
0.125289
0.048886
-0.030279
-0.125424
-0.207366
-0.269921
-0.316649
-0.320901
-0.282165
-0.211923
-0.121601
-0.044148
0.031598
0.133895
0.226617
0.279621
0.305711
0.299666
0.267169
0.217031
0.133767
0.066418
-0.02015
-0.125148
-0.214286
-0.263504
-0.301683
-0.295699
-0.280489
-0.224817
-0.135009
-0.047437
0.053446
0.151333
0.216783
0.272031
0.309998
0.306015
0.26836
0.204298
0.112668
0.029878
-0.051461
-0.151511
-0.218333
-0.260936
-0.295314
-0.295585
-0.267095
-0.22011
-0.127448
-0.050332
0.046327
0.139074
0.206178
0.248364
0.299349
0.302171
0.279714
0.235203
0.124959
0.042107
-0.05084
-0.150486
-0.22413
-0.263329
-0.299861
-0.288266
-0.269884
-0.229192
-0.145867
-0.069762
0.023737
0.12408
0.203672
0.237651
0.277524
0.28031
0.253503
0.21994
0.126726
0.0476
-0.052395
-0.148285
-0.215307
-0.262208
-0.308334
-0.297016
-0.278658
-0.237507
-0.143962
-0.060805
0.02463
0.129283
0.215783
0.270967
0.30091
0.270596
0.258769
0.228631
0.130552
0.047575
-0.04419
-0.130082
-0.207963
-0.25694
-0.30725
-0.297331
-0.267226
-0.22473
-0.129256
-0.053715
0.029912
0.126888
0.205483
0.254447
0.306587
0.300103
0.280842
0.234985
0.150777
0.079214
-0.002941
-0.103755
-0.190252
-0.242758
-0.278415
-0.261314
-0.249199
-0.205598
-0.126444
-0.051074
0.023669
0.113634
0.205781
0.256917
0.302577
0.298161
0.287584
0.256681
0.174518
0.089306
-0.000424
-0.102948
-0.165065
-0.22212
-0.285978
-0.311539
-0.278617
-0.23437
-0.142143
-0.062519
0.013707
0.110833
0.175649
0.243782
0.296426
0.297333
0.283097
0.245657
0.159636
0.086655
0.006881
-0.084993
-0.162304
-0.216672
-0.28514
-0.289086
-0.268203
-0.229054
-0.130771
-0.03847
0.042939
0.136418
0.212535
0.267133
0.305916
0.307562
0.295298
0.249858
0.164745
0.087454
0.014361
-0.08989
-0.179297
-0.234312
-0.271829
-0.267023
-0.239518
-0.196767
-0.124099
-0.042995
0.032704
0.115273
0.194025
0.263726
0.321473
0.326944
0.311474
0.25972
0.166163
0.105444
0.012432
-0.091806
-0.167872
-0.212599
-0.261309
-0.256402
-0.246848
-0.215154
-0.128497
-0.038989
0.042727
0.13318
0.20064
0.250193
0.284455
0.299341
0.293812
0.255672
0.17337
0.100183
0.007744
-0.081655
-0.155118
-0.213689
-0.263762
-0.262548
-0.252317
-0.224244
-0.140655
-0.051367
0.03066
0.114254
0.189501
0.249661
0.311693
0.314172
0.292993
0.260906
0.182988
0.101919
0.01407
-0.089351
-0.165169
-0.203259
-0.248323
-0.242917
-0.22653
-0.204934
-0.137162
-0.058539
0.030922
0.131861
0.201987
0.251523
0.314343
0.326788
0.315634
0.276098
0.204985
0.128031
0.053827
-0.055286
-0.154545
-0.194739
-0.238205
-0.248519
-0.237406
-0.209554
-0.143831
-0.050214
0.033147
0.132487
0.223913
0.288491
0.33834
0.321847
0.304616
0.261613
0.18451
0.101115
0.030453
-0.058225
-0.139409
-0.199419
-0.239203
-0.253044
-0.23993
-0.204145
-0.133738
-0.060596
0.026584
0.12141
0.198613
0.240086
0.289811
0.313521
0.303393
0.272819
0.205101
0.118025
0.039637
-0.044659
-0.130645
-0.196229
-0.237703
-0.254226
-0.238911
-0.219172
-0.156666
-0.063953
0.018262
0.1107
0.190733
0.257938
0.310822
0.322639
0.308181
0.269146
0.196093
0.109794
0.029432
-0.051197
-0.142862
-0.208853
-0.234693
-0.241552
-0.224169
-0.206203
-0.157082
-0.077392
-0.000393
0.086871
0.183693
0.253287
0.299602
0.327052
0.308933
0.286906
0.214191
0.125078
0.042193
-0.035917
-0.121702
-0.185827
-0.23479
-0.256563
-0.253029
-0.216819
-0.146916
-0.066435
0.021677
0.114421
0.202279
0.266271
0.308258
0.333732
0.318668
0.280688
0.22739
0.129204
0.031384
-0.058295
-0.132586
-0.202011
-0.246881
-0.255486
-0.249558
-0.220085
-0.157937
-0.087522
-0.004484
0.095321
0.188315
0.251309
0.29316
0.316361
0.30979
0.278986
0.211319
0.12411
0.036925
-0.050324
-0.142841
-0.206604
-0.247499
-0.261098
-0.250845
-0.235063
-0.185041
-0.092706
-0.01248
0.096834
0.190586
0.250402
0.285216
0.299903
0.281593
0.284545
0.249233
0.169218
0.084103
-0.00266
-0.098309
-0.163136
-0.230408
-0.245003
-0.246238
-0.240608
-0.189132
-0.098109
-0.005951
0.080977
0.172415
0.239033
0.283578
0.315491
0.313743
0.293949
0.236913
0.145892
0.078134
-0.016576
-0.105139
-0.186429
-0.232767
-0.269798
-0.252712
-0.229575
-0.182675
-0.086697
-0.002441
0.083501
0.172775
0.250588
0.291408
0.321463
0.318055
0.29224
0.241215
0.144679
0.069967
-0.015599
-0.115571
-0.189165
-0.228854
-0.256762
-0.251138
-0.218571
-0.173174
-0.081508
-0.005588
0.087081
0.186279
0.256349
0.311338
0.361921
0.350649
0.331469
0.285098
0.19579
0.102236
-0.002855
-0.103269
-0.193221
-0.260339
-0.280007
-0.277558
-0.258069
-0.193013
-0.092168
0.00985
0.097463
0.182257
0.251104
0.299534
0.332833
0.323265
0.289451
0.247969
0.153212
0.076692
-0.023633
-0.108095
-0.193802
-0.231583
-0.27133
-0.271296
-0.244265
-0.1821
-0.07267
-0.007085
0.076801
0.166698
0.238876
0.280136
0.322121
0.329164
0.301576
0.248671
0.156024
0.078311
-0.00186
-0.091468
-0.174679
-0.230982
-0.27136
-0.265999
-0.243022
-0.191372
-0.094014
-0.004142
0.079904
0.172879
0.246714
0.298995
0.33586
0.33225
0.308346
0.265593
0.171004
0.087321
0.010673
-0.081071
-0.176125
-0.230993
-0.258921
-0.234641
-0.224826
-0.180472
-0.098395
-0.014362
0.068045
0.160487
0.24395
0.291851
0.329363
0.329393
0.299536
0.252231
0.157853
0.084666
0.001935
-0.099975
-0.177378
-0.229814
-0.281006
-0.278927
-0.250477
-0.190521
-0.103644
-0.03152
0.057092
0.153002
0.224398
0.29213
0.344852
0.338554
0.302978
0.256012
0.159754
0.07866
-0.002696
-0.085923
-0.166059
-0.209502
-0.25405
-0.241865
-0.230041
-0.194038
-0.108769
-0.03417
0.06609
0.156727
0.231283
0.276391
0.329715
0.331443
0.310166
0.261103
0.170614
0.098759
0.025714
-0.0642
-0.149936
-0.210979
-0.266189
-0.278669
-0.255867
-0.207915
-0.11091
-0.027956
0.06529
0.148507
0.2356
0.292888
0.335667
0.335736
0.314706
0.267271
0.175115
0.073746
-0.002121
-0.095822
-0.165276
-0.215099
-0.261721
-0.266231
-0.248204
-0.205494
-0.123884
-0.044684
0.038672
0.134335
0.226592
0.284045
0.321384
0.333879
0.328431
0.28204
0.179591
0.095772
0.022496
-0.05132
-0.137134
-0.196345
-0.250833
-0.254528
-0.243444
-0.21119
-0.12302
-0.021405
0.063152
0.142945
0.210397
0.274578
0.325328
0.325871
0.299221
0.268468
0.191499
0.115789
0.031265
-0.066994
-0.161001
-0.21072
-0.259637
-0.264958
-0.228143
-0.196578
-0.128676
-0.04758
0.052257
0.137357
0.209337
0.270709
0.330617
0.3304
0.326166
0.294062
0.197922
0.110541
0.028666
-0.071419
-0.144319
-0.195229
-0.247584
-0.250645
-0.246197
-0.216029
-0.131182
-0.047568
0.042286
0.128302
0.19964
0.26681
0.321767
0.321299
0.298999
0.268447
0.181298
0.103056
0.025507
-0.064881
-0.137645
-0.188321
-0.255066
-0.259992
-0.241975
-0.219817
-0.123498
-0.042723
0.036956
0.130916
0.204615
0.268266
0.317061
0.331511
0.324139
0.287116
0.209491
0.125845
0.034067
-0.068404
-0.148892
-0.20814
-0.250962
-0.27245
-0.247207
-0.186695
-0.11119
-0.038604
0.036391
0.131948
0.214058
0.276894
0.329282
0.341672
0.335909
0.312862
0.248339
0.149078
0.057063
-0.034563
-0.121889
-0.192157
-0.246199
-0.244923
-0.236203
-0.211757
-0.134513
-0.055503
0.030236
0.134478
0.228598
0.287121
0.34002
0.352438
0.328607
0.305052
0.238189
0.158582
0.056475
-0.04821
-0.134553
-0.209275
-0.248031
-0.238882
-0.225807
-0.19484
-0.107435
-0.034371
0.039572
0.124087
0.201713
0.269618
0.321976
0.335473
0.32459
0.281909
0.210663
0.130679
0.046674
-0.045564
-0.121904
-0.179361
-0.229444
-0.25037
-0.238504
-0.213258
-0.133365
-0.035369
0.040293
0.130959
0.214205
0.270935
0.304944
0.3276
0.314075
0.284315
0.21996
0.132056
0.06975
-0.012337
-0.108397
-0.173316
-0.227343
-0.240484
-0.235984
-0.205184
-0.128742
-0.050331
0.03173
0.132428
0.214935
0.268159
0.31908
0.32779
0.312235
0.290765
0.242054
0.14854
0.062432
-0.033634
-0.114579
-0.179489
-0.238883
-0.260165
-0.256318
-0.218666
-0.149445
-0.069476
0.00274
0.092096
0.18394
0.252711
0.313206
0.337171
0.326901
0.295118
0.238327
0.156132
0.07747
-0.005882
-0.115651
-0.195039
-0.236892
-0.264908
-0.260079
-0.233148
-0.160208
-0.060627
0.027328
0.125152
0.199957
0.254197
0.295463
0.330409
0.329082
0.305014
0.246644
0.147007
0.049272
-0.042205
-0.132356
-0.1956
-0.234914
-0.26308
-0.254599
-0.226353
-0.168616
-0.080903
0.011835
0.10084
0.186525
0.261511
0.319883
0.340338
0.328949
0.291626
0.232808
0.139953
0.061226
-0.018334
-0.118097
-0.199676
-0.251303
-0.276075
-0.256274
-0.217183
-0.175067
-0.068163
0.02872
0.119026
0.197337
0.265605
0.31331
0.329098
0.319463
0.295679
0.234203
0.141035
0.053629
-0.040868
-0.129798
-0.211138
-0.253088
-0.282085
-0.254575
-0.219327
-0.177752
-0.078645
0.011973
0.102647
0.18803
0.250446
0.296019
0.332621
0.327098
0.292315
0.244158
0.161426
0.080881
-0.014631
-0.114365
-0.187694
-0.237344
-0.264262
-0.248285
-0.20504
-0.173844
-0.085594
0.000935
0.083141
0.174611
0.236207
0.291878
0.325519
0.325898
0.299593
0.261722
0.163845
0.076528
-0.007407
-0.099636
-0.15881
-0.211834
-0.237362
-0.232739
-0.226349
-0.168162
-0.066738
-0.008801
0.088745
0.17957
0.235719
0.284233
0.320789
0.329372
0.323256
0.25699
0.145714
0.07811
0.002099
-0.100328
-0.178897
-0.225664
-0.257585
-0.258454
-0.235683
-0.188545
-0.0862
-0.010004
0.084132
0.170435
0.261113
0.306878
0.350632
0.337537
0.309539
0.256295
0.175278
0.086433
-0.006959
-0.113788
-0.187937
-0.223336
-0.272417
-0.272905
-0.247493
-0.189648
-0.100566
-0.011808
0.078988
0.183343
0.251114
0.300651
0.344997
0.335737
0.312896
0.266097
0.173311
0.098455
0.016382
-0.080166
-0.157696
-0.198661
-0.24412
-0.246547
-0.22504
-0.179293
-0.086679
-0.015454
0.076267
0.164959
0.236699
0.277213
0.325568
0.327372
0.316831
0.273904
0.189079
0.100146
0.011744
-0.092847
-0.152807
-0.208393
-0.267648
-0.265283
-0.24402
-0.202615
-0.088076
0.012667
0.104856
0.181406
0.237498
0.286179
0.329316
0.339191
0.321724
0.283439
0.187409
0.101815
0.011476
-0.076682
-0.139333
-0.194492
-0.245973
-0.235756
-0.225221
-0.179854
-0.095445
-0.017778
0.068814
0.167678
0.244305
0.299478
0.349507
0.353778
0.320968
0.288442
0.192629
0.100561
0.016227
-0.069693
-0.145755
-0.207072
-0.253123
-0.250811
-0.230695
-0.176602
-0.093647
-0.017015
0.067052
0.183377
0.25327
0.309908
0.353795
0.34684
0.329261
0.287612
0.194109
0.102411
0.028048
-0.064139
-0.148718
-0.210414
-0.248213
-0.243559
-0.221523
-0.179122
-0.097247
-0.021954
0.058846
0.166778
0.25312
0.309075
0.355266
0.34493
0.3321
0.289988
0.206859
0.131239
0.05523
-0.041596
-0.111631
-0.174427
-0.241928
-0.238536
-0.196254
-0.165063
-0.080885
-0.001442
0.079478
0.167768
0.25596
0.293717
0.3489
0.357935
0.340107
0.322229
0.242509
0.146087
0.064399
-0.044767
-0.132173
-0.191743
-0.24668
-0.239399
-0.220823
-0.187369
-0.097112
-0.003813
0.086235
0.180722
0.248557
0.305419
0.358694
0.354847
0.350356
0.318843
0.212198
0.129616
0.070129
-0.003955
-0.087813
-0.166607
-0.220333
-0.222957
-0.199183
-0.169832
-0.103659
-0.016301
0.064521
0.165932
0.253107
0.313955
0.366752
0.358613
0.345
0.319763
0.24487
0.159009
0.079074
-0.025971
-0.102979
-0.151657
-0.198711
-0.193296
-0.1865
-0.149156
-0.077945
0.000482
0.077386
0.171089
0.2507
0.313928
0.379028
0.384672
0.357785
0.311561
0.223511
0.152541
0.070194
-0.025994
-0.108855
-0.166463
-0.21721
-0.210013
-0.200956
-0.166287
-0.082746
0.002049
0.082309
0.163693
0.257761
0.339232
0.37846
0.371182
0.348276
0.318616
0.240478
0.173918
0.105537
0.008581
-0.078542
-0.158521
-0.202406
-0.212106
-0.208656
-0.180976
-0.106155
-0.012906
0.100549
0.211062
0.296862
0.33903
0.383149
0.376158
0.364099
0.337521
0.267576
0.182137
0.108546
0.003251
-0.081478
-0.130825
-0.178394
-0.196531
-0.194802
-0.156
-0.075167
0.010338
0.082712
0.18032
0.26252
0.325274
0.375705
0.387205
0.376116
0.350001
0.284003
0.193288
0.117034
0.015934
-0.07661
-0.14005
-0.175037
-0.196926
-0.18546
-0.155071
-0.091055
0.009469
0.089763
0.180381
0.269303
0.337221
0.377768
0.389117
0.378824
0.34743
0.282701
0.221414
0.142895
0.041902
-0.054444
-0.121139
-0.168018
-0.193441
-0.190881
-0.153491
-0.07729
0.001179
0.075515
0.171723
0.249588
0.319323
0.375916
0.398931
0.38611
0.357801
0.293857
0.215545
0.138334
0.048747
-0.039373
-0.099136
-0.145272
-0.170394
-0.151879
-0.116422
-0.058259
0.036196
0.125466
0.215811
0.293088
0.348592
0.397455
0.400075
0.416669
0.383346
0.332352
0.23589
0.14534
0.038367
-0.050689
-0.099192
-0.125515
-0.154952
-0.153162
-0.11402
-0.06178
0.023032
0.10319
0.197302
0.288547
0.35288
0.391661
0.421438
0.420462
0.394341
0.34627
0.254521
0.16955
0.077015
-0.009032
-0.082515
-0.136639
-0.177444
-0.15987
-0.123469
-0.062969
0.03413
0.126977
0.206731
0.287892
0.358036
0.40009
0.432806
0.425212
0.402078
0.344457
0.253457
0.172655
0.086624
0.005814
-0.077057
-0.123315
-0.148696
-0.139584
-0.115937
-0.064719
0.022172
0.103708
0.212883
0.309553
0.377538
0.40789
0.434188
0.434017
0.40902
0.342951
0.250071
0.181236
0.091893
0.003682
-0.07035
-0.106003
-0.130299
-0.120125
-0.102846
-0.038619
0.046261
0.118002
0.191813
0.282971
0.365354
0.422881
0.456099
0.450491
0.424194
0.381719
0.300032
0.203688
0.099894
0.018455
-0.057021
-0.105156
-0.138105
-0.131798
-0.10727
-0.054465
0.031089
0.102135
0.186673
0.28331
0.393732
0.439361
0.455183
0.454779
0.430409
0.368646
0.276706
0.202428
0.125711
0.018249
-0.05511
-0.09468
-0.127317
-0.110961
-0.083206
-0.046222
0.046191
0.126146
0.22313
0.312956
0.385604
0.431461
0.47846
0.47673
0.443305
0.392108
0.292933
0.204558
0.127586
0.037597
-0.025641
-0.076973
-0.117758
-0.111722
-0.09238
-0.033087
0.054525
0.137916
0.228316
0.325579
0.381531
0.442064
0.491573
0.477503
0.444262
0.410286
0.334778
0.265454
0.173672
0.073609
-0.006202
-0.069112
-0.120753
-0.124785
-0.09054
-0.048321
0.041711
0.128052
0.223575
0.309728
0.379763
0.437036
0.474599
0.475811
0.458615
0.420391
0.320775
0.242306
0.15678
0.057345
-0.007756
-0.065276
-0.10984
-0.103786
-0.085111
-0.047931
0.043327
0.121614
0.21764
0.316508
0.396383
0.447526
0.490864
0.480236
0.465323
0.430736
0.336493
0.247366
0.164292
0.066116
-0.002016
-0.0619
-0.120214
-0.123957
-0.088924
-0.046987
0.067674
0.157934
0.240955
0.315436
0.390777
0.449057
0.491597
0.501559
0.485883
0.432404
0.33273
0.254067
0.162703
0.081342
0.00871
-0.034623
-0.090323
-0.080639
-0.048071
-0.004988
0.073434
0.134429
0.204354
0.298528
0.389949
0.44112
0.498082
0.496503
0.479551
0.43623
0.347939
0.269338
0.193388
0.091429
0.010835
-0.052901
-0.110364
-0.114501
-0.089283
-0.044159
0.050628
0.133092
0.205373
0.313941
0.392596
0.445452
0.497467
0.502427
0.484661
0.443296
0.334465
0.256474
0.173097
0.073936
-0.007703
-0.05525
-0.110794
-0.112532
-0.106429
-0.057253
0.026466
0.109213
0.190132
0.294863
0.378442
0.43692
0.499133
0.498597
0.477735
0.434032
0.350984
0.274595
0.182867
0.097225
0.019187
-0.027486
-0.078391
-0.070297
-0.067633
-0.049345
0.037233
0.136709
0.246388
0.339219
0.39858
0.442566
0.523049
0.516817
0.496336
0.458107
0.366879
0.290248
0.222905
0.117158
0.035961
-0.026794
-0.071388
-0.074263
-0.029969
-0.005011
0.078522
0.141184
0.235901
0.306115
0.381148
0.450486
0.519927
0.523206
0.511218
0.471913
0.393637
0.309482
0.231155
0.131983
0.052998
-0.017366
-0.076333
-0.074491
-0.049089
-0.01285
0.073317
0.15213
0.224672
0.323311
0.40389
0.47739
0.527988
0.524603
0.508451
0.488285
0.399883
0.317
0.226959
0.122128
0.050029
0.000221
-0.037557
-0.032897
-0.029701
-0.020857
0.058058
0.126353
0.218542
0.312312
0.407448
0.48221
0.517512
0.516997
0.503268
0.484819
0.406656
0.324353
0.249702
0.153636
0.06586
0.021842
-0.033765
-0.049768
-0.031198
0.002613
0.079663
0.152798
0.237354
0.335232
0.423862
0.482505
0.542384
0.544201
0.525676
0.503474
0.437981
0.348543
0.254233
0.163779
0.07019
0.018495
-0.026516
-0.031213
-0.022432
0.012192
0.072347
0.162292
0.263855
0.357346
0.442966
0.496977
0.554136
0.573511
0.567273
0.548242
0.498322
0.400153
0.281326
0.164065
0.059076
0.001563
-0.029771
-0.031432
-0.027097
0.000778
0.063616
0.155369
0.238206
0.331983
0.423788
0.491938
0.537239
0.541936
0.544032
0.511277
0.418665
0.343127
0.26929
0.17408
0.094064
0.021507
-0.03614
-0.048479
-0.04768
-0.004884
0.066456
0.142696
0.237763
0.333197
0.423995
0.486648
0.534785
0.554625
0.542571
0.504941
0.444387
0.362186
0.278215
0.186107
0.115663
0.046786
-0.008143
-0.028043
-0.011368
0.018141
0.085544
0.159608
0.249687
0.352801
0.437831
0.492867
0.531072
0.558543
0.549046
0.534963
0.47135
0.379852
0.312649
0.232698
0.147178
0.09765
0.028414
0.007503
0.009359
0.012536
0.075211
0.169697
0.246399
0.341379
0.428184
0.49094
0.542336
0.56859
0.569003
0.535843
0.471196
0.379991
0.279
0.192051
0.114635
0.038935
-0.006798
-0.025706
-0.002274
0.026651
0.083096
0.171958
0.254495
0.347008
0.430966
0.49434
0.538493
0.572167
0.567747
0.53442
0.474505
0.389242
0.312811
0.231567
0.141751
0.076068
0.026186
-0.006282
0.0004
0.03356
0.083846
0.160217
0.24423
0.341008
0.421617
0.516473
0.561951
0.597271
0.578333
0.531638
0.478864
0.40326
0.326115
0.230769
0.13494
0.071432
0.030986
0.016529
0.037736
0.065857
0.124749
0.210379
0.283762
0.364604
0.447306
0.501471
0.516733
0.568824
0.569562
0.545356
0.491025
0.407152
0.33766
0.253565
0.159905
0.093908
0.048342
0.003573
0.007815
0.051543
0.101659
0.189852
0.27638
0.361871
0.445598
0.53179
0.575566
0.59487
0.578569
0.5535
0.519311
0.418765
0.349931
0.282278
0.182444
0.097587
0.03542
0.003069
0.017758
0.048836
0.071838
0.14995
0.223063
0.30582
0.407496
0.491613
0.53973
0.563089
0.5685
0.558339
0.502695
0.411819
0.316668
0.233349
0.138707
0.073655
0.028811
-0.012401
-0.014665
0.007067
0.050263
0.14599
0.227808
0.321441
0.418298
0.504562
0.546598
0.602744
0.596689
0.55512
0.506266
0.408476
0.336371
0.251462
0.148631
0.083194
0.038138
-0.010232
-0.004941
0.020746
0.061815
0.148981
0.236983
0.323081
0.428657
0.512107
0.569543
0.613576
0.587242
0.570497
0.542002
0.454736
0.351875
0.278685
0.181996
0.101448
0.052001
0.006922
0.0157
0.03513
0.062271
0.154775
0.232857
0.336439
0.441083
0.513206
0.566361
0.616718
0.597406
0.562828
0.529468
0.439217
0.348848
0.270705
0.175673
0.110696
0.054222
0.000039
-0.009924
-0.005029
0.054393
0.156107
0.224859
0.294304
0.39312
0.46852
0.517415
0.579695
0.573499
0.548066
0.50674
0.421518
0.340252
0.254385
0.148483
0.061375
0.010584
-0.026676
-0.013633
0.013655
0.048856
0.128034
0.209025
0.293728
0.400146
0.48292
0.533589
0.590751
0.585186
0.543985
0.50991
0.429179
0.349953
0.272397
0.173095
0.077092
0.016089
-0.03774
-0.039275
-0.019062
0.039891
0.145504
0.220868
0.299074
0.385405
0.464006
0.536203
0.580188
0.586575
0.566136
0.523364
0.449044
0.36167
0.269166
0.16173
0.080763
0.033425
-0.016055
0.002575
0.02027
0.043388
0.133436
0.215797
0.301415
0.403455
0.494712
0.548092
0.600183
0.59325
0.581354
0.534884
0.462733
0.35911
0.264608
0.151159
0.075016
0.023127
-0.025465
-0.01713
0.005358
0.040057
0.120876
0.19634
0.276769
0.365072
0.447041
0.508225
0.560423
0.555346
0.542281
0.506975
0.433879
0.356903
0.279407
0.190208
0.104131
0.046569
-0.00631
-0.010113
-0.002433
0.035079
0.106394
0.187892
0.263981
0.368326
0.450069
0.526818
0.584516
0.58467
0.566321
0.527265
0.457022
0.365511
0.267993
0.181759
0.097373
0.030521
-0.020259
-0.014767
0.007565
0.05202
0.131634
0.208732
0.292203
0.388837
0.470418
0.531722
0.590326
0.588668
0.560612
0.527613
0.468791
0.390839
0.308021
0.205074
0.113413
0.057144
0.015288
0.021141
0.040076
0.09063
0.158464
0.211764
0.278841
0.375902
0.457992
0.52566
0.58591
0.596171
0.58443
0.548854
0.478685
0.378308
0.277887
0.179974
0.099022
0.040805
-0.00409
-0.023158
-0.01055
0.032643
0.102757
0.181032
0.25414
0.351186
0.425457
0.494559
0.550514
0.552699
0.542243
0.511853
0.44203
0.364126
0.290506
0.19483
0.099612
0.04599
0.000932
0.000142
0.013831
0.052944
0.106232
0.195843
0.268087
0.362843
0.455093
0.524371
0.575428
0.590671
0.572587
0.531094
0.459305
0.386739
0.322093
0.217922
0.126355
0.050179
0.016038
-0.014369
0.007051
0.023357
0.092567
0.171112
0.255051
0.351243
0.444847
0.506071
0.558432
0.571473
0.562005
0.533853
0.4621
0.381732
0.2918
0.171932
0.097113
0.056047
0.013257
0.006122
0.011426
0.037622
0.096779
0.17448
0.262339
0.380647
0.480179
0.550035
0.563977
0.588845
0.592327
0.564222
0.492532
0.40874
0.328531
0.227425
0.136221
0.062546
0.015596
-0.000603
0.003445
0.026518
0.083369
0.168757
0.271657
0.359501
0.44867
0.515051
0.564624
0.578432
0.555218
0.518384
0.46831
0.392125
0.309347
0.219533
0.116161
0.056593
0.02091
-0.005869
-0.004342
0.012391
0.064522
0.142722
0.230064
0.333503
0.422771
0.50412
0.546825
0.564188
0.553827
0.52023
0.470592
0.377041
0.288322
0.201659
0.121632
0.06175
0.012711
-0.01247
-0.022345
0.010289
0.082499
0.192722
0.265823
0.35203
0.439696
0.487119
0.53276
0.574852
0.554205
0.53418
0.48951
0.40788
0.326014
0.224097
0.144738
0.075902
0.045003
0.01821
-0.003037
0.033379
0.099076
0.19154
0.262513
0.361587
0.471892
0.512903
0.527084
0.564379
0.570997
0.546942
0.480323
0.400768
0.332447
0.235013
0.144781
0.071266
0.022355
-0.00928
-0.007713
0.012226
0.046766
0.152362
0.249325
0.337203
0.417353
0.481039
0.538728
0.573204
0.567481
0.539456
0.490007
0.395104
0.284173
0.194417
0.101591
0.045168
0.000814
-0.032954
-0.02601
0.000404
0.049529
0.13158
0.204401
0.298097
0.391463
0.457739
0.497672
0.527888
0.534023
0.519398
0.456288
0.365986
0.27487
0.196479
0.098622
0.039608
-0.001855
-0.054406
-0.053069
-0.024447
0.017191
0.118545
0.186419
0.274409
0.38221
0.456501
0.507856
0.53614
0.521487
0.505164
0.447488
0.372578
0.286699
0.194463
0.1082
0.036452
0.000675
-0.055394
-0.054554
-0.022291
0.028614
0.109715
0.178554
0.286214
0.377186
0.446545
0.483695
0.517567
0.510099
0.482171
0.436303
0.346095
0.264181
0.18437
0.098351
0.02264
-0.032555
-0.090646
-0.070549
-0.047778
0.007438
0.085681
0.147718
0.226313
0.331519
0.405981
0.450965
0.491654
0.502248
0.469639
0.415957
0.320815
0.242476
0.166225
0.084223
0.009341
-0.041788
-0.082468
-0.069662
-0.06769
-0.020872
0.073268
0.141405
0.212269
0.303341
0.394127
0.44508
0.479706
0.472881
0.457776
0.426986
0.338728
0.259384
0.178051
0.090928
0.008229
-0.042863
-0.101677
-0.090489
-0.059292
-0.02364
0.072561
0.153551
0.245921
0.322278
0.388516
0.438083
0.486124
0.474845
0.448309
0.404976
0.328334
0.256785
0.181902
0.079959
0.016504
-0.013105
-0.071595
-0.067245
-0.058779
-0.034017
0.049357
0.146689
0.245146
0.328251
0.391172
0.437074
0.490922
0.501712
0.481791
0.440497
0.354287
0.275647
0.204055
0.102384
0.040169
-0.020461
-0.073116
-0.074547
-0.059131
-0.011672
0.086538
0.163262
0.244961
0.321635
0.407285
0.458261
0.483541
0.475044
0.47004
0.442924
0.358229
0.279085
0.207936
0.118218
0.047218
-0.005689
-0.059683
-0.065972
-0.042433
0.005141
0.112413
0.180815
0.254293
0.349158
0.438853
0.500639
0.539699
0.510247
0.469494
0.45682
0.386841
0.304388
0.234117
0.131132
0.059299
0.008291
-0.03938
-0.040655
-0.009069
0.027874
0.122536
0.179841
0.253925
0.351531
0.424126
0.47877
0.523942
0.5318
0.514809
0.479633
0.394947
0.334191
0.246855
0.152075
0.098702
0.037081
-0.016342
-0.01993
0.014857
0.047591
0.117654
0.182899
0.251033
0.346245
0.426752
0.471921
0.517046
0.5292
0.515195
0.467047
0.400493
0.336977
0.27851
0.184353
0.105007
0.046656
-0.001657
-0.011329
0.021999
0.042462
0.085459
0.15412
0.233688
0.329202
0.402534
0.47144
0.515187
0.519442
0.5049
0.473714
0.407086
0.348484
0.266511
0.165731
0.069856
0.0061
-0.042594
-0.0412
-0.024108
0.002816
0.070113
0.149266
0.233713
0.336837
0.41498
0.462224
0.489346
0.50285
0.495195
0.456077
0.378097
0.305379
0.229591
0.141293
0.059511
-0.006747
-0.058062
-0.059331
-0.046972
-0.003545
0.085227
0.159826
0.23219
0.32318
0.393956
0.454586
0.500479
0.503403
0.48205
0.432232
0.367872
0.292171
0.212928
0.132702
0.047974
-0.006326
-0.049035
-0.064777
-0.058041
-0.025648
0.044974
0.135392
0.215998
0.317802
0.403542
0.454912
0.517231
0.529439
0.524111
0.495649
0.431327
0.346014
0.259531
0.154968
0.073889
0.014218
-0.032959
-0.043778
-0.018917
0.012002
0.059764
0.173622
0.262198
0.331428
0.406314
0.460882
0.514519
0.522826
0.511658
0.492087
0.42219
0.343138
0.271675
0.184797
0.099695
0.042115
-0.0092
-0.030765
-0.035564
-0.00591
0.052557
0.136166
0.213243
0.317047
0.397438
0.462863
0.514781
0.53757
0.537109
0.50691
0.434608
0.335637
0.260344
0.169986
0.0809
0.014384
-0.030555
-0.040279
-0.032189
0.009079
0.062925
0.133735
0.223175
0.316882
0.399259
0.453158
0.503018
0.525048
0.536265
0.503293
0.451517
0.356305
0.258855
0.168384
0.096253
0.035364
-0.004482
-0.028641
-0.026602
-0.003758
0.062655
0.127933
0.19906
0.304461
0.399131
0.459959
0.520358
0.546677
0.530904
0.499745
0.458435
0.36212
0.263847
0.186
0.097781
0.033986
0.007053
-0.007251
-0.016469
-0.012574
0.033015
0.115791
0.207464
0.288879
0.388176
0.458846
0.494936
0.523333
0.521617
0.49667
0.444396
0.367863
0.276688
0.185027
0.078856
0.016206
-0.013164
-0.023732
-0.023573
0.018031
0.079875
0.156851
0.223356
0.287528
0.366941
0.453574
0.481057
0.511145
0.500324
0.494248
0.446908
0.360422
0.277109
0.184578
0.094759
0.017525
-0.01761
-0.03629
-0.0383
-0.011425
0.043996
0.13121
0.21318
0.294326
0.374966
0.455981
0.502778
0.530931
0.532709
0.495764
0.42881
0.34493
0.280202
0.193246
0.105329
0.021332
-0.007376
-0.032585
-0.046653
-0.025244
0.01538
0.106559
0.193589
0.280427
0.352879
0.438787
0.489602
0.530901
0.526859
0.493706
0.45457
0.365776
0.285026
0.199639
0.106462
0.035698
-0.023576
-0.056244
-0.054366
-0.020745
0.035189
0.127393
0.199937
0.274809
0.363219
0.436985
0.485332
0.509045
0.49955
0.485184
0.44589
0.351128
0.271585
0.191237
0.107109
0.056147
0.030182
-0.016837
-0.020981
-0.004543
0.033706
0.129517
0.191381
0.27026
0.349976
0.407498
0.452624
0.512894
0.525913
0.50625
0.471876
0.370273
0.27212
0.19498
0.127173
0.039785
0.031613
-0.019835
-0.046052
-0.031472
-0.004473
0.080195
0.16433
0.250511
0.340787
0.421265
0.476709
0.502792
0.506557
0.481408
0.43152
0.339104
0.268347
0.19508
0.107189
0.053539
0.007392
-0.053015
-0.054298
-0.021133
0.014256
0.096552
0.167686
0.257299
0.341841
0.398212
0.44392
0.478267
0.475303
0.461298
0.412215
0.33437
0.275025
0.205381
0.129151
0.060577
0.007416
-0.023129
-0.038704
-0.014367
0.020067
0.09083
0.165018
0.250591
0.350464
0.422014
0.47171
0.501617
0.488053
0.458168
0.425342
0.349683
0.273953
0.19989
0.123228
0.045624
-0.007004
-0.058185
-0.062739
-0.030365
0.020647
0.092433
0.162299
0.241104
0.321968
0.397618
0.44004
0.48484
0.487105
0.478604
0.438819
0.355006
0.277436
0.191623
0.103917
0.03654
-0.006244
-0.039729
-0.029159
-0.017809
0.005301
0.103304
0.187435
0.245369
0.344164
0.411577
0.438716
0.470238
0.493194
0.485349
0.462509
0.38174
0.323506
0.241676
0.121315
0.023348
-0.008126
-0.051602
-0.057474
-0.049159
-0.003628
0.079252
0.166978
0.236538
0.317682
0.384191
0.431112
0.476493
0.473
0.46721
0.440449
0.3656
0.293954
0.202176
0.093008
0.048232
0.001839
-0.057892
-0.047587
-0.02673
0.00289
0.071733
0.151753
0.225252
0.307503
0.376184
0.435355
0.481445
0.487641
0.483501
0.442558
0.363934
0.296922
0.220137
0.132431
0.058111
-0.003253
-0.054285
-0.054872
-0.044693
-0.01428
0.078076
0.176775
0.250795
0.322635
0.387335
0.421726
0.483119
0.52292
0.483405
0.434454
0.352856
0.276761
0.195791
0.103197
0.03057
-0.021695
-0.06053
-0.062599
-0.051035
-0.015272
0.053759
0.132454
0.205582
0.306292
0.375647
0.436388
0.475774
0.489167
0.479088
0.440646
0.365504
0.283467
0.212992
0.124517
0.061443
-0.000635
-0.052148
-0.06875
-0.069183
-0.034126
0.058694
0.136108
0.197489
0.277461
0.3688
0.439819
0.481507
0.47817
0.45815
0.426552
0.36074
0.279574
0.200184
0.107564
0.021257
-0.005095
-0.057845
-0.05659
-0.040956
-0.014699
0.045299
0.127467
0.207034
0.286276
0.35347
0.407016
0.461654
0.486333
0.475759
0.435485
0.357699
0.305255
0.224535
0.11759
0.027872
-0.023649
-0.07925
-0.091239
-0.071758
-0.036274
0.034226
0.097892
0.179131
0.283831
0.373425
0.418722
0.461732
0.47245
0.471253
0.455681
0.376915
0.290806
0.203799
0.115367
0.014701
-0.031721
-0.075399
-0.103801
-0.081203
-0.047707
0.028138
0.114888
0.198747
0.293943
0.366462
0.415619
0.451884
0.467657
0.450317
0.423928
0.372815
0.289242
0.219399
0.126708
0.053315
-0.016573
-0.082687
-0.092816
-0.067979
-0.040995
0.008334
0.099264
0.196444
0.26921
0.337537
0.397961
0.444728
0.458904
0.463566
0.448279
0.369432
0.289349
0.22066
0.123216
0.052339
-0.016165
-0.068734
-0.081964
-0.065881
-0.031308
0.026505
0.0945
0.177315
0.271065
0.339668
0.393763
0.43275
0.459088
0.464578
0.439197
0.374235
0.287841
0.213815
0.1351
0.054656
-0.017747
-0.064419
-0.078304
-0.097258
-0.054634
-0.005241
0.082376
0.1597
0.236648
0.327809
0.394507
0.43597
0.459705
0.44551
0.413493
0.358444
0.284995
0.205203
0.112848
0.016009
-0.057385
-0.101116
-0.089538
-0.075729
-0.056269
0.023467
0.0874
0.148814
0.231383
0.321188
0.386382
0.422736
0.434949
0.43789
0.408949
0.35624
0.276213
0.197658
0.114293
0.038822
-0.027145
-0.066678
-0.090806
-0.071599
-0.05398
-0.019135
0.062252
0.143022
0.236159
0.330854
0.413394
0.446972
0.468269
0.44441
0.414048
0.360922
0.273733
0.171796
0.104537
0.010906
-0.059303
-0.096784
-0.114549
-0.10643
-0.071379
-0.015247
0.079946
0.154685
0.215677
0.299555
0.368658
0.430001
0.453183
0.440094
0.408761
0.372179
0.296988
0.211121
0.120054
0.039994
-0.022131
-0.063569
-0.110405
-0.098725
-0.069415
-0.042376
0.029135
0.103211
0.199197
0.29116
0.354214
0.403485
0.450444
0.45003
0.422473
0.368961
0.275658
0.195393
0.111719
0.030678
-0.034266
-0.072825
-0.107598
-0.098515
-0.061392
-0.008976
0.062349
0.124987
0.20842
0.285176
0.345914
0.364879
0.415299
0.433454
0.405308
0.353491
0.258366
0.18476
0.103003
0.018876
-0.046707
-0.092194
-0.128972
-0.12733
-0.091438
-0.043852
0.031145
0.112149
0.179215
0.291366
0.364742
0.422058
0.461435
0.441473
0.409493
0.360574
0.272942
0.199059
0.124598
0.02591
-0.055756
-0.085872
-0.108631
-0.118304
-0.0879
-0.056432
0.030817
0.116526
0.186813
0.271792
0.346251
0.396433
0.428962
0.420662
0.399405
0.355284
0.27277
0.210738
0.133336
0.029969
-0.046358
-0.097176
-0.157744
-0.139395
-0.101461
-0.055401
0.044818
0.11003
0.188073
0.282007
0.359682
0.375754
0.413895
0.396488
0.388123
0.347655
0.260505
0.197248
0.11884
0.02513
-0.045362
-0.107094
-0.137219
-0.123765
-0.109737
-0.081781
0.008235
0.09839
0.174609
0.262562
0.338671
0.389331
0.410754
0.397714
0.383751
0.349454
0.284916
0.224267
0.15294
0.05047
-0.033021
-0.081218
-0.152815
-0.139664
-0.105644
-0.063318
0.009143
0.06373
0.138092
0.235334
0.305547
0.366952
0.401981
0.40658
0.393478
0.361283
0.275861
0.191538
0.124469
0.019864
-0.048898
-0.093581
-0.145148
-0.128009
-0.103277
-0.071007
0.007967
0.076525
0.156263
0.232124
0.293023
0.348244
0.396161
0.396818
0.385699
0.343381
0.263074
0.192073
0.111815
0.023958
-0.041587
-0.094987
-0.148006
-0.140708
-0.127623
-0.100273
-0.013731
0.070217
0.148084
0.228801
0.309563
0.378652
0.405161
0.370352
0.331372
0.304798
0.249459
0.178628
0.107101
0.013031
-0.05671
-0.103785
-0.143845
-0.137594
-0.121282
-0.09208
-0.026256
0.033594
0.126376
0.212781
0.287012
0.334914
0.375283
0.383206
0.3643
0.330054
0.24841
0.173617
0.097284
0.013196
-0.05807
-0.104747
-0.140563
-0.146993
-0.12701
-0.096641
-0.031512
0.027269
0.090024
0.180322
0.26225
0.320795
0.367829
0.36642
0.357834
0.322042
0.247371
0.175458
0.107146
0.026483
-0.048319
-0.106579
-0.180479
-0.179678
-0.169032
-0.132558
-0.042186
0.049144
0.110254
0.193104
0.267993
0.308981
0.367859
0.382545
0.343304
0.303139
0.222938
0.17074
0.1007
0.001365
-0.073626
-0.134053
-0.190649
-0.179722
-0.163209
-0.140153
-0.070778
0.00549
0.101574
0.180902
0.252699
0.317898
0.362733
0.361751
0.355822
0.31676
0.247214
0.170686
0.097529
-0.009458
-0.07096
-0.122989
-0.172871
-0.175007
-0.146805
-0.114685
-0.057377
0.000153
0.065164
0.154446
0.246679
0.307946
0.347448
0.355626
0.336571
0.307203
0.249645
0.17524
0.098061
0.015969
-0.043485
-0.090633
-0.169349
-0.194256
-0.183541
-0.148004
-0.078776
-0.009334
0.061262
0.14656
0.23413
0.304017
0.339916
0.34185
0.334095
0.308011
0.25246
0.166545
0.081054
-0.00038
-0.07302
-0.137421
-0.170504
-0.173393
-0.172619
-0.153909
-0.090416
-0.00805
0.073343
0.172678
0.252316
0.308325
0.339875
0.350311
0.345878
0.314543
0.247541
0.174542
0.094389
-0.000377
-0.071679
-0.136882
-0.17892
-0.184951
-0.184363
-0.147352
-0.081815
-0.000098
0.082216
0.131423
0.209785
0.287107
0.333437
0.340545
0.329871
0.301188
0.227726
0.145456
0.075919
-0.003356
-0.076227
-0.138911
-0.188782
-0.206596
-0.210591
-0.181236
-0.141787
-0.061784
0.027641
0.110402
0.193767
0.265794
0.298125
0.31555
0.303749
0.298131
0.243775
0.149242
0.065638
-0.021933
-0.109276
-0.18084
-0.218578
-0.224218
-0.225902
-0.197626
-0.142811
-0.051397
0.044591
0.114644
0.182627
0.2437
0.30437
0.314143
0.300879
0.267228
0.209979
0.1352
0.060006
-0.028827
-0.124356
-0.184829
-0.2142
-0.233286
-0.22702
-0.181795
-0.132642
-0.051132
0.013141
0.095167
0.174144
0.250701
0.291321
0.322577
0.319174
0.27455
0.226369
0.139677
0.053344
-0.036127
-0.083974
-0.137958
-0.191562
-0.243942
-0.231249
-0.220674
-0.161275
-0.068537
0.009254
0.104928
0.181859
0.237313
0.28014
0.309101
0.303336
0.288834
0.250756
0.160723
0.075529
-0.009605
-0.085693
-0.153638
-0.196127
-0.241509
-0.240574
-0.198964
-0.131786
-0.030938
0.059277
0.124199
0.191196
0.270907
0.336861
0.350857
0.325832
0.310113
0.250922
0.14249
0.068161
-0.014959
-0.098886
-0.161905
-0.196137
-0.212101
-0.218064
-0.190484
-0.129065
-0.046566
0.03009
0.112264
0.200176
0.264548
0.307952
0.331563
0.321695
0.299349
0.263054
0.174084
0.092242
0.021206
-0.05548
-0.125752
-0.167245
-0.212504
-0.221698
-0.196293
-0.156181
-0.066677
0.01685
0.105338
0.196518
0.265639
0.304082
0.345663
0.337382
0.313856
0.269635
0.192849
0.128552
0.058992
-0.036818
-0.122826
-0.161556
-0.209095
-0.214297
-0.183571
-0.142704
-0.059207
0.017162
0.11966
0.206822
0.265801
0.308349
0.347529
0.348907
0.318746
0.273748
0.198532
0.124507
0.045647
-0.059012
-0.144252
-0.19885
-0.226809
-0.227246
-0.186234
-0.146944
-0.052768
0.020449
0.086962
0.176485
0.276828
0.3453
0.392758
0.389486
0.365094
0.306554
0.199281
0.106921
0.001988
-0.085617
-0.144096
-0.167423
-0.21519
-0.220367
-0.201178
-0.155407
-0.063588
0.023848
0.108022
0.191494
0.27854
0.330451
0.372655
0.360455
0.331584
0.278393
0.198778
0.121112
0.047492
-0.036708
-0.113809
-0.18429
-0.223848
-0.226696
-0.213127
-0.187743
-0.113264
-0.035969
0.057608
0.151094
0.226344
0.289076
0.317459
0.316501
0.289041
0.261965
0.172934
0.09702
0.014787
-0.080473
-0.147196
-0.185823
-0.242145
-0.265708
-0.250488
-0.221857
-0.129619
-0.050143
0.038714
0.144846
0.232603
0.278731
0.304317
0.2873
0.263013
0.235464
0.148279
0.057487
-0.02974
-0.106693
-0.182633
-0.233285
-0.272788
-0.270811
-0.25583
-0.221954
-0.141306
-0.0555
0.01152
0.109174
0.188949
0.257218
0.310821
0.320635
0.30266
0.24764
0.148547
0.075908
0.001833
-0.098689
-0.195102
-0.242816
-0.283832
-0.272303
-0.256625
-0.21559
-0.139104
-0.07178
0.002302
0.099484
0.181325
0.254324
0.305819
0.29181
0.263025
0.250165
0.156147
0.078768
0.004731
-0.081348
-0.158252
-0.211344
-0.267448
-0.276176
-0.266414
-0.243379
-0.154168
-0.072702
0.007998
0.109873
0.191098
0.244376
0.284694
0.291917
0.288892
0.248445
0.152917
0.073695
0.005346
-0.088363
-0.161454
-0.211313
-0.257998
-0.267451
-0.253893
-0.210879
-0.141755
-0.047851
0.029584
0.144205
0.218503
0.264873
0.294327
0.285463
0.265141
0.222551
0.149015
0.076843
-0.004554
-0.086001
-0.164218
-0.228482
-0.288852
-0.277534
-0.250677
-0.216315
-0.138827
-0.070942
-0.009163
0.076859
0.179721
0.257163
0.305954
0.298139
0.268373
0.2417
0.164262
0.090684
0.002296
-0.097918
-0.172784
-0.231684
-0.273725
-0.289136
-0.276572
-0.237264
-0.158206
-0.091011
-0.00472
0.09141
0.171752
0.222901
0.281288
0.291584
0.277718
0.242586
0.152417
0.077456
0.011953
-0.085691
-0.176922
-0.233715
-0.269816
-0.27875
-0.280995
-0.233134
-0.176424
-0.106565
-0.013404
0.081947
0.184826
0.265534
0.31537
0.306223
0.274619
0.234452
0.16763
0.099387
0.023913
-0.069826
-0.16051
-0.225633
-0.279987
-0.291821
-0.260312
-0.232646
-0.158921
-0.077892
-0.003409
0.093996
0.174694
0.248577
0.288929
0.29635
0.280006
0.235865
0.156775
0.079606
0.00357
-0.059557
-0.129438
-0.216324
-0.255781
-0.264476
-0.255479
-0.23621
-0.174467
-0.104407
-0.018236
0.063952
0.133352
0.208024
0.270115
0.277318
0.258558
0.233635
0.171843
0.087028
-0.000053
-0.091119
-0.164179
-0.234871
-0.287304
-0.301017
-0.291296
-0.257432
-0.190608
-0.108855
-0.035492
0.059556
0.147097
0.217686
0.257443
0.261345
0.243713
0.221291
0.169732
0.073457
-0.014284
-0.10237
-0.171116
-0.229477
-0.277085
-0.281848
-0.270348
-0.26428
-0.210803
-0.124524
-0.042096
0.046121
0.146661
0.192742
0.227138
0.242243
0.241862
0.215475
0.149156
0.070086
0.005036
-0.084097
-0.163187
-0.229238
-0.275578
-0.302166
-0.282775
-0.265209
-0.204801
-0.142291
-0.060497
0.025447
0.120416
0.191237
0.239029
0.259936
0.246946
0.231825
0.165767
0.083324
0.002919
-0.09421
-0.185734
-0.234153
-0.270827
-0.295494
-0.282911
-0.266199
-0.206957
-0.117039
-0.048181
0.015881
0.10599
0.188143
0.225911
0.236602
0.237523
0.208894
0.152527
0.080412
0.007569
-0.084296
-0.174304
-0.244709
-0.278397
-0.291667
-0.287353
-0.259601
-0.211229
-0.133
-0.05994
0.00787
0.090035
0.163186
0.2146
0.249824
0.251075
0.207907
0.142053
0.071044
0.010714
-0.086251
-0.174373
-0.247817
-0.284795
-0.310554
-0.319496
-0.286929
-0.223933
-0.140789
-0.065839
0.024088
0.096283
0.169016
0.217402
0.248703
0.230418
0.209979
0.152719
0.090812
0.008577
-0.067988
-0.161301
-0.240367
-0.281445
-0.298749
-0.284091
-0.265535
-0.220438
-0.142157
-0.070689
0.009523
0.094416
0.162176
0.20876
0.247116
0.255035
0.221623
0.166809
0.069382
-0.003737
-0.076508
-0.147017
-0.213254
-0.258765
-0.296385
-0.296685
-0.280016
-0.235943
-0.169227
-0.079542
0.004728
0.080963
0.159619
0.19679
0.227148
0.239814
0.202661
0.15844
0.070773
-0.005347
-0.086737
-0.174271
-0.248352
-0.299521
-0.334116
-0.313649
-0.257507
-0.225806
-0.155242
-0.085912
-0.006947
0.078224
0.156614
0.188927
0.221217
0.229745
0.201328
0.166795
0.077604
0.011502
-0.06795
-0.158108
-0.239492
-0.286469
-0.33424
-0.335273
-0.310302
-0.267594
-0.168587
-0.075897
0.000984
0.074999
0.135838
0.184052
0.239053
0.257723
0.247626
0.186895
0.075038
-0.00163
-0.088037
-0.187063
-0.255154
-0.285161
-0.321463
-0.317574
-0.295664
-0.248537
-0.158209
-0.080707
0.003186
0.095404
0.174537
0.210616
0.255448
0.256652
0.22288
0.176077
0.081494
-0.011041
-0.082501
-0.162486
-0.231307
-0.268145
-0.308125
-0.304574
-0.284854
-0.248981
-0.16902
-0.077714
0.00567
0.088829
0.164525
0.217134
0.262861
0.256196
0.229919
0.184633
0.104569
0.039378
-0.045138
-0.141651
-0.221748
-0.283678
-0.343238
-0.329242
-0.303122
-0.275665
-0.190411
-0.095824
0.001731
0.091669
0.162346
0.196274
0.235077
0.231127
0.221774
0.184492
0.093121
0.011218
-0.066205
-0.164194
-0.231215
-0.283415
-0.33978
-0.326755
-0.309706
-0.260507
-0.173287
-0.092938
-0.015784
0.065089
0.132689
0.188254
0.244355
0.231569
0.225237
0.183733
0.098215
0.021237
-0.051871
-0.142714
-0.230842
-0.276822
-0.310188
-0.311358
-0.299728
-0.270291
-0.186462
-0.103941
-0.015315
0.068846
0.117846
0.193968
0.262803
0.25916
0.241689
0.201279
0.108037
0.035614
-0.034764
-0.125762
-0.194024
-0.249669
-0.306345
-0.311517
-0.293646
-0.249414
-0.176319
-0.104789
-0.032887
0.060113
0.135519
0.191136
0.238801
0.239304
0.239596
0.219658
0.134641
0.057609
-0.026894
-0.10891
-0.194119
-0.254677
-0.303985
-0.315467
-0.297954
-0.265996
-0.180887
-0.113924
-0.03438
0.051871
0.134266
0.196583
0.243281
0.234304
0.221801
0.187693
0.108293
0.035685
-0.05198
-0.149003
-0.224356
-0.26213
-0.310687
-0.308317
-0.289982
-0.25985
-0.173507
-0.101858
-0.017982
0.062882
0.119048
0.172639
0.239136
0.25865
0.254447
0.208609
0.132019
0.044331
-0.030213
-0.12547
-0.188612
-0.260907
-0.310272
-0.311657
-0.29481
-0.265254
-0.190645
-0.11462
-0.03341
0.055837
0.136988
0.197863
0.250525
0.250527
0.2331
0.200303
0.128851
0.05368
-0.021633
-0.112921
-0.188507
-0.241656
-0.306115
-0.313423
-0.30226
-0.268094
-0.1896
-0.108907
-0.037869
0.059685
0.1458
0.227227
0.278244
0.253318
0.246381
0.203932
0.144675
0.070932
-0.016621
-0.09057
-0.173061
-0.225362
-0.291657
-0.311631
-0.293061
-0.260773
-0.190308
-0.113988
-0.014306
0.081624
0.155062
0.209973
0.270858
0.280573
0.250555
0.219877
0.150844
0.069607
-0.021788
-0.118296
-0.200183
-0.245687
-0.281723
-0.281117
-0.277697
-0.257165
-0.16805
-0.086058
-0.005669
0.066663
0.146721
0.214355
0.268037
0.271956
0.261643
0.228124
0.166653
0.078235
-0.012959
-0.104892
-0.170422
-0.238019
-0.296164
-0.306958
-0.283228
-0.255751
-0.199681
-0.110756
-0.023766
0.056891
0.138576
0.19239
0.239934
0.28102
0.27483
0.241612
0.169743
0.088204
0.007828
-0.080889
-0.160246
-0.22284
-0.276359
-0.299118
-0.279838
-0.24915
-0.183289
-0.094521
-0.025557
0.072776
0.156704
0.197841
0.231936
0.254722
0.244807
0.22311
0.174442
0.093525
0.021678
-0.062408
-0.161211
-0.212335
-0.267537
-0.300409
-0.295799
-0.277106
-0.206468
-0.115849
-0.043189
0.0429
0.134983
0.204639
0.244999
0.257604
0.241536
0.231334
0.186909
0.099748
0.0301
-0.056332
-0.138974
-0.223723
-0.26945
-0.284967
-0.288159
-0.259574
-0.205641
-0.121359
-0.046382
0.038428
0.122417
0.21512
0.254104
0.271882
0.252073
0.226945
0.179179
0.10379
0.025073
-0.064032
-0.156628
-0.213355
-0.225043
-0.267524
-0.279138
-0.265247
-0.206752
-0.1241
-0.041302
0.04682
0.132978
0.210248
0.258766
0.285535
0.279677
0.258676
0.1967
0.110148
0.03118
-0.06549
-0.1456
-0.205811
-0.271532
-0.296362
-0.290653
-0.266485
-0.209896
-0.112948
-0.042023
0.030713
0.120656
0.185345
0.229157
0.265145
0.262042
0.243488
0.185665
0.10385
0.029279
-0.047161
-0.13994
-0.200154
-0.233727
-0.27156
-0.257074
-0.235657
-0.199992
-0.116824
-0.039366
0.040507
0.124045
0.19499
0.255638
0.287913
0.28871
0.263482
0.199807
0.101822
0.022406
-0.060574
-0.143118
-0.195394
-0.225057
-0.255046
-0.263354
-0.250598
-0.208308
-0.119052
-0.033395
0.049142
0.139178
0.194943
0.238142
0.283966
0.288869
0.250663
0.200871
0.102125
0.026246
-0.036659
-0.099134
-0.168925
-0.236378
-0.277986
-0.280509
-0.265268
-0.20998
-0.120043
-0.041447
0.024056
0.117672
0.186612
0.246613
0.294706
0.288393
0.243029
0.194392
0.108891
0.048659
-0.02702
-0.106719
-0.17874
-0.230816
-0.279644
-0.287624
-0.266691
-0.217955
-0.126085
-0.050708
0.049736
0.149325
0.202937
0.238308
0.273967
0.283044
0.260964
0.220083
0.130733
0.047163
-0.026354
-0.119157
-0.182029
-0.2395
-0.270484
-0.265452
-0.245475
-0.201583
-0.11228
-0.047726
0.039005
0.125073
0.204248
0.264676
0.302966
0.305981
0.275509
0.231957
0.127114
0.056792
-0.03014
-0.127125
-0.189685
-0.240602
-0.277113
-0.269069
-0.247794
-0.208148
-0.131901
-0.047915
0.038524
0.128061
0.201738
0.239966
0.280044
0.266624
0.248658
0.2026
0.123514
0.059644
-0.015415
-0.113159
-0.182419
-0.225373
-0.261047
-0.263989
-0.246808
-0.213129
-0.128131
-0.062868
0.029325
0.116101
0.180237
0.228907
0.275917
0.27816
0.261896
0.244587
0.166875
0.090866
-0.002296
-0.113992
-0.176186
-0.218667
-0.267771
-0.265587
-0.256282
-0.213062
-0.126606
-0.039654
0.019221
0.116608
0.194607
0.245167
0.297512
0.296572
0.266494
0.231845
0.137134
0.062407
-0.011526
-0.096464
-0.159943
-0.212751
-0.241102
-0.247538
-0.226301
-0.182703
-0.106678
-0.0396
0.027552
0.121725
0.170677
0.215571
0.287283
0.297512
0.261919
0.227311
0.152012
0.083351
0.000479
-0.09562
-0.159992
-0.21075
-0.252069
-0.262351
-0.262359
-0.249344
-0.17752
-0.085301
0.019627
0.108963
0.191262
0.238549
0.281117
0.271555
0.259999
0.243406
0.16149
0.086913
-0.001545
-0.075539
-0.159496
-0.210688
-0.259639
-0.25615
-0.246692
-0.208741
-0.133021
-0.047048
0.026568
0.117345
0.192563
0.238195
0.279349
0.29414
0.283104
0.259316
0.16988
0.094576
0.009198
-0.072985
-0.141754
-0.208388
-0.264419
-0.260014
-0.231789
-0.20772
-0.149246
-0.080077
-0.001641
0.098087
0.177251
0.237959
0.28056
0.294753
0.285597
0.254409
0.167605
0.077274
-0.007446
-0.088666
-0.160944
-0.21154
-0.242042
-0.262144
-0.261416
-0.222865
-0.156822
-0.065574
0.019506
0.108216
0.153384
0.224341
0.289163
0.304523
0.279421
0.256158
0.167629
0.0885
0.020254
-0.06343
-0.141563
-0.221333
-0.270388
-0.278335
-0.263921
-0.230403
-0.157134
-0.084123
0.001443
0.088567
0.178872
0.226816
0.293907
0.310047
0.304031
0.261588
0.195759
0.110684
0.023921
-0.080301
-0.154232
-0.212184
-0.242525
-0.256938
-0.244586
-0.227125
-0.170632
-0.08148
0.003261
0.100237
0.194839
0.252558
0.297779
0.304966
0.308218
0.269481
0.196648
0.10076
0.023951
-0.021748
-0.089715
-0.162918
-0.260406
-0.288732
-0.279899
-0.242003
-0.162556
-0.084345
-0.002941
0.091972
0.175077
0.244791
0.291107
0.300955
0.293289
0.268247
0.200037
0.12376
0.041881
-0.044076
-0.124916
-0.205307
-0.246326
-0.259557
-0.253031
-0.230875
-0.158778
-0.077777
0.000598
0.099177
0.182307
0.232488
0.284043
0.301632
0.294476
0.269558
0.208421
0.126191
0.03913
-0.040339
-0.117496
-0.185651
-0.230615
-0.259204
-0.252375
-0.228925
-0.16365
-0.079441
-0.002613
0.0938
0.188019
0.259883
0.307829
0.321072
0.32139
0.307831
0.240211
0.161053
0.060934
-0.029831
-0.112344
-0.184941
-0.237388
-0.247668
-0.232423
-0.203897
-0.159929
-0.093213
-0.01617
0.07861
0.168984
0.236719
0.27866
0.315025
0.302043
0.278455
0.212777
0.136982
0.061496
-0.015878
-0.101911
-0.16757
-0.21919
-0.246117
-0.245806
-0.218603
-0.167465
-0.086839
0.00459
0.098845
0.189927
0.250532
0.27916
0.311843
0.300895
0.278364
0.232214
0.149345
0.081195
-0.015732
-0.113607
-0.179519
-0.21717
-0.248315
-0.247056
-0.219987
-0.164192
-0.064062
0.015573
0.107062
0.193905
0.242416
0.293052
0.325655
0.314818
0.281618
0.235493
0.155095
0.07226
-0.008688
-0.093233
-0.157098
-0.20472
-0.243872
-0.235808
-0.209614
-0.156068
-0.076333
0.012106
0.095528
0.192741
0.258962
0.301578
0.31241
0.300013
0.26586
0.229511
0.150978
0.062651
-0.033094
-0.103671
-0.161643
-0.205662
-0.246816
-0.250695
-0.230297
-0.184525
-0.091072
-0.011461
0.071799
0.14676
0.223164
0.286636
0.323221
0.311219
0.291148
0.245136
0.147209
0.066961
-0.003892
-0.089495
-0.159037
-0.200436
-0.235118
-0.222522
-0.190184
-0.148121
-0.083966
-0.023649
0.085744
0.179868
0.240967
0.292024
0.333557
0.339165
0.309479
0.25005
0.165213
0.082289
-0.008718
-0.104663
-0.17407
-0.208638
-0.243942
-0.262457
-0.221654
-0.166731
-0.074473
0.018078
0.103154
0.192282
0.25527
0.294826
0.302472
0.303545
0.291024
0.252909
0.168395
0.079685
0.005868
-0.083721
-0.161152
-0.199632
-0.234069
-0.234544
-0.222959
-0.181057
-0.07749
-0.01047
0.066711
0.159926
0.237837
0.282201
0.334303
0.33319
0.317753
0.266687
0.165817
0.096077
0.018416
-0.064576
-0.131048
-0.191204
-0.242185
-0.243701
-0.222573
-0.175814
-0.092585
-0.026992
0.061187
0.153327
0.235537
0.289751
0.320574
0.314268
0.300244
0.281782
0.178607
0.093385
0.025971
-0.056035
-0.126619
-0.169066
-0.208351
-0.217894
-0.21233
-0.171242
-0.077757
-0.008896
0.073795
0.152393
0.22486
0.276781
0.318665
0.32121
0.319481
0.276359
0.183644
0.094396
0.005049
-0.081355
-0.147892
-0.200146
-0.243331
-0.232699
-0.2135
-0.18094
-0.100721
-0.022609
0.058532
0.145587
0.212332
0.277404
0.331096
0.339399
0.323748
0.282938
0.186665
0.09399
0.040762
-0.0403
-0.105238
-0.17807
-0.238141
-0.249564
-0.221692
-0.192521
-0.101237
-0.020276
0.05366
0.142319
0.219419
0.280348
0.322352
0.339683
0.334175
0.28204
0.180008
0.115035
0.034479
-0.038563
-0.113232
-0.19173
-0.248125
-0.235301
-0.210254
-0.185768
-0.110008
-0.043085
0.047418
0.170999
0.243745
0.289184
0.318413
0.318231
0.300272
0.266178
0.19216
0.105538
0.025143
-0.067047
-0.140969
-0.182344
-0.238482
-0.233866
-0.211119
-0.188609
-0.112738
-0.032216
0.046724
0.144911
0.226146
0.267516
0.333779
0.336501
0.318524
0.27995
0.193401
0.117834
0.050809
-0.046955
-0.135086
-0.193854
-0.216022
-0.220255
-0.211942
-0.172708
-0.102203
-0.035135
0.040379
0.134774
0.20542
0.282441
0.358742
0.326476
0.311536
0.259672
0.186316
0.117717
0.043613
-0.054866
-0.136442
-0.186208
-0.232918
-0.242913
-0.230329
-0.1963
-0.121887
-0.044448
0.03395
0.131254
0.215765
0.253107
0.304971
0.310843
0.300476
0.261687
0.192083
0.120946
0.03421
-0.067183
-0.13914
-0.193624
-0.255951
-0.263825
-0.235182
-0.204084
-0.142494
-0.0664
0.01571
0.103777
0.200455
0.270878
0.332086
0.321756
0.302911
0.269987
0.204842
0.128074
0.035126
-0.062286
-0.155803
-0.212165
-0.256686
-0.263875
-0.245429
-0.202444
-0.117552
-0.039594
0.039048
0.135505
0.206243
0.262981
0.289657
0.305892
0.29431
0.26794
0.194477
0.108727
0.039421
-0.060611
-0.149135
-0.212444
-0.254886
-0.257816
-0.239368
-0.194468
-0.140461
-0.077588
0.010918
0.100764
0.17783
0.244243
0.299918
0.311461
0.278982
0.258208
0.192515
0.113734
0.026702
-0.073816
-0.153661
-0.224024
-0.277569
-0.285577
-0.279438
-0.252634
-0.175073
-0.088906
-0.007895
0.081273
0.15223
0.200607
0.284542
0.331887
0.320411
0.267236
0.179839
0.100006
0.024732
-0.077764
-0.140172
-0.193318
-0.22876
-0.252528
-0.255858
-0.216161
-0.164695
-0.067782
0.004476
0.069309
0.151746
0.239661
0.291021
0.299051
0.293937
0.267235
0.201109
0.120512
0.037394
-0.050176
-0.149058
-0.218088
-0.27506
-0.283421
-0.258345
-0.226074
-0.166618
-0.080878
0.0041
0.110984
0.18434
0.267972
0.291681
0.297457
0.278807
0.255182
0.200767
0.118172
0.043167
-0.051679
-0.123188
-0.196689
-0.234643
-0.268827
-0.288637
-0.239622
-0.153481
-0.061743
0.006048
0.081817
0.160777
0.224831
0.254038
0.30665
0.313732
0.285785
0.230813
0.15329
0.056026
-0.04768
-0.145869
-0.216063
-0.266966
-0.285361
-0.279573
-0.243879
-0.190417
-0.126803
-0.047132
0.059216
0.150005
0.229023
0.271116
0.276361
0.284355
0.255153
0.214256
0.13552
0.058124
-0.044185
-0.139238
-0.202273
-0.236722
-0.263447
-0.270974
-0.23663
-0.175009
-0.089108
-0.010219
0.086406
0.166462
0.253192
0.313146
0.336045
0.309642
0.273593
0.220659
0.118995
0.061738
-0.02534
-0.136617
-0.202369
-0.23578
-0.252324
-0.246415
-0.220576
-0.154559
-0.077152
-0.000832
0.086382
0.158957
0.216852
0.263544
0.29843
0.310184
0.271831
0.22017
0.12694
0.047267
-0.043222
-0.143402
-0.205182
-0.251517
-0.306404
-0.300577
-0.242289
-0.194646
-0.099446
-0.029419
0.039125
0.130812
0.191239
0.229522
0.271087
0.273392
0.25273
0.205641
0.121547
0.033751
-0.060666
-0.150061
-0.214394
-0.254236
-0.292402
-0.282243
-0.251664
-0.22367
-0.12244
-0.049267
0.046012
0.147061
0.236848
0.274655
0.288096
0.27815
0.255578
0.220011
0.134624
0.032635
-0.059764
-0.152165
-0.209426
-0.250584
-0.28257
-0.274281
-0.248502
-0.197169
-0.105512
-0.030597
0.069092
0.15377
0.220622
0.26988
0.319232
0.315334
0.285264
0.229162
0.126482
0.045673
-0.014467
-0.108087
-0.174727
-0.231066
-0.287565
-0.296931
-0.242513
-0.213097
-0.12919
-0.035476
0.026852
0.124748
0.202364
0.255267
0.306754
0.297176
0.264176
0.223934
0.141656
0.066812
-0.022388
-0.104821
-0.176346
-0.242357
-0.297089
-0.285565
-0.248459
-0.212161
-0.144444
-0.070985
0.009235
0.092461
0.164216
0.204944
0.248916
0.249148
0.238135
0.183442
0.097623
0.018638
-0.054047
-0.141787
-0.204996
-0.257612
-0.312326
-0.307765
-0.299283
-0.255425
-0.151239
-0.056592
0.003634
0.06677
0.147136
0.203126
0.247228
0.251677
0.234843
0.186053
0.098842
0.021417
-0.040561
-0.127745
-0.181175
-0.226891
-0.285577
-0.270763
-0.264369
-0.22568
-0.14981
-0.083206
-0.00398
0.084106
0.169174
0.230869
0.278753
0.288247
0.278572
0.204298
0.098518
0.021793
-0.036217
-0.111371
-0.180181
-0.228748
-0.276456
-0.26879
-0.254788
-0.21576
-0.125794
-0.056074
-0.003603
0.098299
0.184151
0.238546
0.279881
0.284334
0.24005
0.205143
0.127125
0.047896
-0.027464
-0.108718
-0.179738
-0.241494
-0.293312
-0.295256
-0.284403
-0.248604
-0.164917
-0.094734
-0.013356
0.076667
0.150953
0.202193
0.252852
0.248391
0.223692
0.176206
0.110232
0.024626
-0.065227
-0.166291
-0.231966
-0.269896
-0.311255
-0.301578
-0.289925
-0.2621
-0.180201
-0.090258
-0.011062
0.067668
0.137826
0.196089
0.237196
0.222342
0.207925
0.167897
0.093164
0.041723
-0.041376
-0.139443
-0.20989
-0.260406
-0.310598
-0.318848
-0.29832
-0.270057
-0.208766
-0.136264
-0.054593
0.060642
0.143175
0.200848
0.247435
0.254807
0.248464
0.219044
0.140128
0.046598
-0.034662
-0.11657
-0.179768
-0.239322
-0.283772
-0.294889
-0.284949
-0.250845
-0.176924
-0.095897
-0.011164
0.075463
0.168216
0.235976
0.268554
0.245923
0.23866
0.214389
0.152454
0.072759
0.018669
-0.089995
-0.198991
-0.266181
-0.29645
-0.312382
-0.306949
-0.282979
-0.202617
-0.118412
-0.032188
0.059251
0.144256
0.204103
0.2534
0.255575
0.242341
0.199691
0.123304
0.071453
-0.01744
-0.113525
-0.20308
-0.257985
-0.304002
-0.309201
-0.295922
-0.265238
-0.189894
-0.107909
-0.014965
0.067626
0.164359
0.228533
0.262165
0.274937
0.274311
0.239322
0.159168
0.080719
0.00203
-0.087538
-0.161958
-0.224007
-0.273902
-0.300883
-0.281396
-0.243857
-0.172077
-0.093889
-0.007629
0.088004
0.159043
0.226442
0.290017
0.290792
0.241602
0.199943
0.144542
0.07097
0.005793
-0.089956
-0.158725
-0.214147
-0.277365
-0.314036
-0.293504
-0.239653
-0.176441
-0.094871
-0.014567
0.065194
0.144594
0.217293
0.26927
0.280233
0.259675
0.223673
0.157528
0.101281
0.021898
-0.080438
-0.171016
-0.24634
-0.298871
-0.315905
-0.310241
-0.269172
-0.200387
-0.121405
-0.059224
0.029789
0.124068
0.197774
0.24352
0.25226
0.251663
0.227113
0.158189
0.070578
-0.004058
-0.097436
-0.18667
-0.241725
-0.278273
-0.297627
-0.311587
-0.279439
-0.233498
-0.157225
-0.087329
0.001253
0.085294
0.144222
0.205414
0.223163
0.212625
0.186247
0.133274
0.051288
-0.030924
-0.114621
-0.202644
-0.277782
-0.30735
-0.345057
-0.320582
-0.269061
-0.212133
-0.158747
-0.10249
0.003004
0.07708
0.138197
0.195256
0.209756
0.193426
0.158502
0.11475
0.036205
-0.044281
-0.127727
-0.195313
-0.254155
-0.312854
-0.333705
-0.346088
-0.325809
-0.268431
-0.187066
-0.111548
-0.026421
0.048682
0.118443
0.159976
0.207795
0.200204
0.163926
0.116109
0.05626
-0.034153
-0.143081
-0.219651
-0.290903
-0.341267
-0.369473
-0.352764
-0.33616
-0.290901
-0.200228
-0.117941
-0.034056
0.045105
0.104653
0.152979
0.18266
0.184582
0.168174
0.124078
0.03509
-0.045304
-0.131082
-0.213255
-0.273039
-0.310234
-0.35119
-0.331557
-0.299692
-0.242464
-0.172823
-0.119931
-0.049799
0.053654
0.138382
0.181301
0.218115
0.223026
0.198404
0.1422
0.049119
-0.005168
-0.09991
-0.194051
-0.253707
-0.298602
-0.320391
-0.313562
-0.305947
-0.269435
-0.17902
-0.093014
0.010767
0.079763
0.134912
0.184132
0.220372
0.220686
0.201402
0.157988
0.071471
-0.016046
-0.09143
-0.170739
-0.237627
-0.29191
-0.331544
-0.329787
-0.314126
-0.271748
-0.164118
-0.072534
0.010447
0.087691
0.144815
0.192825
0.214289
0.205278
0.189919
0.15991
0.077025
0.008174
-0.082426
-0.164665
-0.229057
-0.279654
-0.32308
-0.309548
-0.274688
-0.218416
-0.162137
-0.102936
-0.041878
0.052603
0.132118
0.172535
0.217342
0.214955
0.192832
0.153408
0.068543
-0.00094
-0.084589
-0.171429
-0.242105
-0.287353
-0.330698
-0.313054
-0.29901
-0.259229
-0.169246
-0.086523
-0.003195
0.089684
0.173527
0.201993
0.220453
0.2295
0.214725
0.160043
0.082154
-0.004749
-0.086573
-0.170033
-0.235083
-0.280036
-0.327603
-0.322724
-0.30301
-0.259065
-0.169915
-0.093762
-0.010567
0.074317
0.138539
0.187492
0.239138
0.229538
0.210884
0.168968
0.090017
0.025798
-0.034904
-0.114938
-0.191249
-0.257564
-0.321061
-0.335052
-0.338523
-0.316249
-0.219881
-0.120122
-0.015288
0.066616
0.130163
0.179785
0.21826
0.227893
0.220378
0.194482
0.104116
0.007756
-0.095188
-0.180243
-0.250212
-0.304354
-0.349929
-0.347034
-0.318246
-0.279439
-0.182872
-0.135319
-0.059934
0.039699
0.11704
0.199476
0.243476
0.206679
0.183401
0.148319
0.083904
0.007556
-0.099927
-0.2075
-0.278166
-0.322513
-0.36317
-0.355116
-0.348171
-0.317667
-0.23771
-0.155057
-0.067178
0.025644
0.099337
0.154974
0.221763
0.208496
0.189319
0.152376
0.053949
-0.026174
-0.099797
-0.212733
-0.286173
-0.316781
-0.353598
-0.361203
-0.371186
-0.343211
-0.266561
-0.182605
-0.090813
0.005856
0.085567
0.15139
0.204413
0.204978
0.161525
0.10372
0.025833
-0.04345
-0.117755
-0.201407
-0.280427
-0.339853
-0.40266
-0.402288
-0.388048
-0.350448
-0.26837
-0.188709
-0.121235
-0.01391
0.061317
0.112405
0.154089
0.150303
0.134596
0.09781
0.022814
-0.076826
-0.168877
-0.263264
-0.332198
-0.394109
-0.430997
-0.446021
-0.432744
-0.391385
-0.318011
-0.241384
-0.165127
-0.073359
0.001183
0.054907
0.102658
0.108358
0.096432
0.052073
-0.022477
-0.096173
-0.183722
-0.277866
-0.356366
-0.420962
-0.465196
-0.458249
-0.436017
-0.411873
-0.330436
-0.251861
-0.185937
-0.101058
-0.037265
0.029516
0.102387
0.109726
0.085083
0.048173
-0.012571
-0.074447
-0.159433
-0.285645
-0.368086
-0.427672
-0.500103
-0.514571
-0.485278
-0.450174
-0.367932
-0.281777
-0.206191
-0.113888
-0.030118
0.026947
0.075666
0.08497
0.076317
0.035694
-0.040094
-0.119778
-0.199458
-0.30412
-0.38257
-0.428079
-0.47483
-0.489355
-0.460449
-0.42549
-0.364616
-0.285767
-0.202729
-0.130641
-0.047903
0.020769
0.070909
0.087477
0.07864
0.051896
-0.016378
-0.111893
-0.191508
-0.286535
-0.337547
-0.4016
-0.451841
-0.475483
-0.472151
-0.438004
-0.370016
-0.287687
-0.212416
-0.115497
-0.029094
0.038249
0.081261
0.098886
0.08894
0.059776
-0.013776
-0.090018
-0.185033
-0.256776
-0.326665
-0.384805
-0.451259
-0.475871
-0.460388
-0.41827
-0.352715
-0.268465
-0.190601
-0.089857
-0.020066
0.033866
0.078378
0.09562
0.057975
0.042963
-0.002826
-0.078455
-0.14335
-0.223121
-0.311314
-0.385565
-0.434509
-0.450501
-0.446342
-0.405808
-0.342929
-0.253438
-0.162346
-0.093668
-0.033698
0.043794
0.100072
0.110147
0.106424
0.065508
0.000934
-0.048204
-0.120911
-0.220266
-0.313901
-0.371439
-0.411861
-0.431044
-0.424201
-0.400711
-0.341699
-0.25703
-0.16423
-0.08618
-0.001751
0.067426
0.10723
0.13021
0.138575
0.102435
0.037654
-0.04289
-0.109929
-0.185894
-0.261605
-0.328975
-0.3748
-0.403374
-0.389187
-0.343569
-0.283495
-0.223219
-0.154957
-0.032335
0.048075
0.0719
0.106196
0.170869
0.15126
0.123362
0.068697
0.004457
-0.039574
-0.126376
-0.230597
-0.315736
-0.344972
-0.36401
-0.361984
-0.336615
-0.280254
-0.192525
-0.126611
-0.036169
0.050226
0.099714
0.135208
0.158865
0.159052
0.143299
0.093964
0.004428
-0.06166
-0.128025
-0.206932
-0.27021
-0.318342
-0.349334
-0.34146
-0.338363
-0.286771
-0.197531
-0.119338
-0.038006
0.045737
0.099851
0.143921
0.17008
0.164329
0.144757
0.101093
0.023653
-0.049972
-0.147895
-0.247729
-0.295542
-0.319805
-0.34857
-0.346488
-0.328265
-0.272734
-0.200306
-0.125074
-0.042505
0.040559
0.097488
0.15469
0.196445
0.196712
0.155076
0.132347
0.039448
-0.060829
-0.13573
-0.210037
-0.266708
-0.309
-0.34839
-0.344757
-0.333895
-0.279348
-0.186029
-0.104629
-0.041716
0.041469
0.114099
0.163952
0.187755
0.183539
0.149183
0.107795
0.02405
-0.04448
-0.118208
-0.19851
-0.26053
-0.30163
-0.338394
-0.331858
-0.321238
-0.283222
-0.191202
-0.120224
-0.040334
0.038347
0.104485
0.140965
0.155206
0.173711
0.179882
0.125315
0.032293
-0.022602
-0.093146
-0.179928
-0.253235
-0.289345
-0.307942
-0.320978
-0.303506
-0.265164
-0.185773
-0.124891
-0.058859
0.038476
0.095712
0.140474
0.18239
0.18439
0.153638
0.120863
0.047711
-0.022885
-0.097446
-0.1784
-0.245331
-0.283536
-0.316356
-0.308201
-0.291544
-0.251633
-0.167523
-0.083051
-0.023981
0.044801
0.081235
0.130903
0.155136
0.178833
0.169743
0.138348
0.056303
-0.015192
-0.095085
-0.179994
-0.249443
-0.289059
-0.317375
-0.303735
-0.270443
-0.264043
-0.191279
-0.120946
-0.048035
0.051802
0.111967
0.149191
0.177142
0.167801
0.158667
0.132111
0.054716
-0.010048
-0.077642
-0.154687
-0.211394
-0.257302
-0.295349
-0.303665
-0.307102
-0.283143
-0.211663
-0.140894
-0.073402
0.011984
0.085613
0.138274
0.184839
0.181185
0.166437
0.134153
0.051056
-0.019003
-0.086416
-0.161123
-0.237296
-0.284674
-0.314245
-0.309847
-0.298744
-0.301744
-0.205907
-0.124452
-0.047062
0.033652
0.102897
0.161588
0.203514
0.204802
0.1887
0.14913
0.069869
0.004845
-0.063366
-0.148494
-0.241996
-0.29568
-0.3254
-0.318051
-0.311583
-0.281342
-0.196629
-0.129147
-0.056225
0.023201
0.100015
0.146375
0.189584
0.194565
0.184734
0.12257
0.063259
0.008202
-0.079384
-0.167231
-0.220409
-0.265528
-0.305498
-0.307061
-0.261631
-0.244079
-0.189831
-0.142344
-0.088253
0.007296
0.095785
0.147555
0.193282
0.190001
0.174434
0.141249
0.072378
0.007769
-0.072134
-0.1571
-0.211988
-0.263174
-0.309567
-0.314627
-0.296485
-0.283651
-0.214234
-0.126918
-0.058764
0.03159
0.101347
0.156073
0.188835
0.193935
0.182786
0.171935
0.101886
0.023885
-0.036609
-0.131392
-0.221186
-0.268207
-0.30074
-0.295478
-0.324083
-0.318717
-0.252726
-0.163207
-0.071341
0.011339
0.092882
0.154197
0.197614
0.200347
0.17922
0.155551
0.106972
0.03028
-0.074416
-0.149742
-0.204567
-0.27865
-0.331335
-0.33511
-0.321323
-0.287215
-0.214006
-0.14154
-0.065507
0.008983
0.092072
0.172161
0.222641
0.228031
0.203799
0.15301
0.08216
0.017449
-0.055754
-0.146045
-0.20881
-0.264649
-0.3188
-0.322959
-0.32124
-0.299593
-0.22845
-0.133102
-0.039177
0.020885
0.10908
0.168936
0.200752
0.202095
0.198323
0.176069
0.111445
0.026772
-0.059623
-0.156452
-0.216132
-0.262662
-0.311712
-0.322757
-0.30848
-0.273964
-0.221885
-0.151526
-0.082025
-0.003682
0.068618
0.136156
0.193754
0.191393
0.192712
0.167991
0.115713
0.033459
-0.03175
-0.122188
-0.205388
-0.274302
-0.325429
-0.339249
-0.329296
-0.282736
-0.228347
-0.153424
-0.079189
0.003498
0.078369
0.15708
0.192825
0.203936
0.200481
0.166293
0.104267
0.035443
-0.029435
-0.126573
-0.214928
-0.27626
-0.322933
-0.33505
-0.327001
-0.298325
-0.241566
-0.152923
-0.073549
0.017987
0.082313
0.148323
0.191446
0.212262
0.191568
0.159504
0.103469
0.038114
-0.041903
-0.117483
-0.202483
-0.249853
-0.288004
-0.317897
-0.326957
-0.314643
-0.248473
-0.15484
-0.089765
0.030464
0.112421
0.149751
0.193322
0.212973
0.198093
0.167172
0.149402
0.075169
-0.036627
-0.151595
-0.243512
-0.291142
-0.322759
-0.332999
-0.336495
-0.30236
-0.249439
-0.179932
-0.102834
-0.016772
0.056803
0.115588
0.176519
0.221993
0.203753
0.178569
0.116079
0.032177
-0.050278
-0.127553
-0.202229
-0.256868
-0.302807
-0.321257
-0.314745
-0.309832
-0.274732
-0.161769
-0.103061
-0.032099
0.048452
0.12754
0.172521
0.194797
0.195334
0.172703
0.126079
0.04288
-0.018795
-0.087913
-0.157475
-0.231432
-0.277957
-0.331045
-0.334414
-0.305204
-0.272101
-0.191442
-0.095742
0.007214
0.102
0.139897
0.157638
0.202939
0.206538
0.190141
0.14118
0.050609
-0.032902
-0.12291
-0.197374
-0.266374
-0.311492
-0.35185
-0.332007
-0.305426
-0.259555
-0.162279
-0.088606
-0.01336
0.063275
0.099302
0.142703
0.184619
0.179588
0.173207
0.130471
0.041024
-0.035627
-0.119708
-0.191771
-0.252259
-0.302298
-0.337367
-0.347136
-0.310181
-0.260035
-0.174314
-0.117325
-0.04377
0.041527
0.116767
0.176989
0.202975
0.201363
0.170022
0.147995
0.05001
-0.032164
-0.106763
-0.198979
-0.25076
-0.300862
-0.34865
-0.35115
-0.326647
-0.282521
-0.191493
-0.119034
-0.036568
0.057219
0.130421
0.178957
0.211295
0.197205
0.16904
0.124958
0.04427
-0.041194
-0.110468
-0.185619
-0.245919
-0.283612
-0.325181
-0.323338
-0.3079
-0.266954
-0.195606
-0.120082
-0.035994
0.033248
0.098749
0.144184
0.189649
0.188936
0.194644
0.147298
0.073247
-0.029759
-0.110553
-0.201221
-0.270612
-0.311681
-0.332495
-0.327792
-0.308881
-0.278723
-0.200723
-0.124267
-0.049476
0.033452
0.092554
0.132899
0.163118
0.187978
0.191713
0.147022
0.053084
-0.011787
-0.081225
-0.165252
-0.227733
-0.282487
-0.350542
-0.338601
-0.315693
-0.275524
-0.199083
-0.122126
-0.049802
0.039136
0.103949
0.15348
0.189704
0.179757
0.157362
0.12414
0.050139
-0.016965
-0.089588
-0.166815
-0.25041
-0.300999
-0.340725
-0.326986
-0.311085
-0.286568
-0.205557
-0.138121
-0.077864
0.00572
0.076208
0.137244
0.184416
0.192827
0.164446
0.144414
0.06005
-0.003585
-0.072167
-0.160143
-0.231976
-0.290221
-0.332181
-0.332042
-0.322144
-0.28669
-0.203452
-0.140584
-0.065839
0.032877
0.107852
0.134155
0.173879
0.174081
0.161993
0.146267
0.05231
-0.02528
-0.080322
-0.166399
-0.243409
-0.293632
-0.329886
-0.322459
-0.317612
-0.280727
-0.186709
-0.133334
-0.085269
-0.017473
0.056578
0.113263
0.162025
0.176006
0.157168
0.118222
0.033646
-0.060147
-0.131374
-0.205177
-0.279547
-0.329462
-0.355938
-0.345093
-0.322956
-0.290625
-0.21427
-0.155134
-0.083601
0.008871
0.085458
0.129599
0.176846
0.171191
0.154836
0.11495
0.046784
-0.016804
-0.08897
-0.170122
-0.246528
-0.308921
-0.345102
-0.335343
-0.317541
-0.269242
-0.215342
-0.142668
-0.091359
-0.018971
0.046885
0.091906
0.146135
0.157136
0.160663
0.132714
0.049927
-0.019954
-0.10183
-0.175254
-0.249304
-0.30013
-0.34601
-0.34758
-0.32502
-0.301335
-0.242202
-0.16298
-0.089176
0.007277
0.070692
0.122861
0.16331
0.176309
0.149935
0.111366
0.054144
-0.011547
-0.07919
-0.18009
-0.24124
-0.303097
-0.349291
-0.364517
-0.371265
-0.340047
-0.255679
-0.178785
-0.110572
-0.019473
0.061416
0.102789
0.147343
0.157087
0.142885
0.102449
0.038107
-0.027965
-0.106542
-0.181239
-0.227784
-0.293765
-0.348054
-0.386146
-0.371416
-0.33188
-0.26263
-0.18361
-0.114922
-0.035965
0.034729
0.078055
0.116778
0.126857
0.121222
0.094806
0.037873
-0.019583
-0.10758
-0.190277
-0.26772
-0.340165
-0.388133
-0.388618
-0.379762
-0.36381
-0.283967
-0.210137
-0.131986
-0.050256
0.019976
0.087115
0.118454
0.128792
0.118209
0.090771
0.028127
-0.036871
-0.119337
-0.207328
-0.280703
-0.339655
-0.379373
-0.394326
-0.381721
-0.355691
-0.280842
-0.197822
-0.114542
-0.056309
0.012561
0.071778
0.128532
0.147055
0.137183
0.10628
0.037898
-0.036034
-0.102078
-0.201522
-0.297451
-0.338027
-0.382732
-0.404355
-0.390741
-0.346291
-0.291842
-0.228025
-0.147516
-0.044818
0.042895
0.105086
0.150215
0.16583
0.159711
0.111251
0.050627
-0.023326
-0.093308
-0.182509
-0.257452
-0.312813
-0.350127
-0.390264
-0.389334
-0.371852
-0.314531
-0.220916
-0.151969
-0.074622
-0.004425
0.077928
0.137387
0.163098
0.154409
0.127724
0.070131
-0.025592
-0.103885
-0.177432
-0.261958
-0.324943
-0.372425
-0.400416
-0.39511
-0.380074
-0.31839
-0.225575
-0.133466
-0.057441
0.027682
0.106407
0.155931
0.160922
0.135967
0.082184
0.065126
-0.02051
-0.102047
-0.19241
-0.272358
-0.319087
-0.379496
-0.408101
-0.414812
-0.376294
-0.324295
-0.238639
-0.155519
-0.060261
0.029865
0.08832
0.131254
0.164558
0.155189
0.129096
0.068325
-0.021649
-0.103255
-0.178066
-0.266625
-0.344363
-0.376441
-0.397523
-0.394474
-0.36641
-0.304431
-0.217857
-0.151195
-0.044759
0.047567
0.091715
0.108593
0.144944
0.144787
0.116785
0.073332
-0.022864
-0.100806
-0.176332
-0.268585
-0.342955
-0.394574
-0.417695
-0.417201
-0.381146
-0.314878
-0.230936
-0.146475
-0.05589
0.051729
0.097265
0.109853
0.144914
0.155909
0.132741
0.100369
0.014902
-0.056706
-0.14744
-0.249322
-0.322366
-0.366498
-0.389314
-0.378877
-0.363753
-0.322984
-0.232702
-0.15457
-0.059353
0.023159
0.090694
0.141468
0.19814
0.186524
0.156421
0.109261
0.033335
-0.048385
-0.138624
-0.229853
-0.300608
-0.344477
-0.387592
-0.382115
-0.366323
-0.314423
-0.230548
-0.149107
-0.063197
0.031391
0.1145
0.156024
0.192217
0.17131
0.150006
0.106324
0.034208
-0.033383
-0.132965
-0.222046
-0.303863
-0.335776
-0.374177
-0.366097
-0.340049
-0.304563
-0.192259
-0.115448
-0.032549
0.045426
0.11736
0.16341
0.198882
0.203142
0.200892
0.165156
0.075547
-0.010859
-0.110033
-0.20716
-0.257581
-0.311173
-0.355635
-0.351245
-0.322506
-0.247263
-0.143178
-0.116825
-0.049569
0.036682
0.126272
0.173464
0.225562
0.229268
0.201662
0.155076
0.060764
-0.005441
-0.089634
-0.180952
-0.247469
-0.305641
-0.360365
-0.365887
-0.340523
-0.29659
-0.216095
-0.12874
-0.0447
0.045415
0.110589
0.157271
0.21444
0.221497
0.200382
0.15117
0.068646
-0.018672
-0.097849
-0.184735
-0.254097
-0.303163
-0.358927
-0.348798
-0.323535
-0.287169
-0.206396
-0.127196
-0.052209
0.037057
0.114468
0.157425
0.218863
0.233693
0.202435
0.173838
0.099741
0.0212
-0.071176
-0.16064
-0.238743
-0.291738
-0.36085
-0.366306
-0.33582
-0.281781
-0.203701
-0.141042
-0.060447
0.02994
0.110562
0.161654
0.209551
0.210354
0.184632
0.157907
0.079915
0.002648
-0.09181
-0.166096
-0.247686
-0.312548
-0.353697
-0.350635
-0.336211
-0.292899
-0.227615
-0.143038
-0.041257
0.034097
0.092672
0.158043
0.217645
0.207148
0.174183
0.141792
0.059856
-0.012876
-0.104316
-0.20149
-0.26537
-0.323484
-0.361863
-0.347347
-0.33294
-0.301952
-0.23677
-0.1583
-0.089907
0.003155
0.075849
0.145443
0.194728
0.194371
0.178574
0.145677
0.068745
-0.00603
-0.089184
-0.182221
-0.260246
-0.302022
-0.343124
-0.344199
-0.338249
-0.315956
-0.236837
-0.134062
-0.058211
0.01501
0.097024
0.145255
0.186611
0.179172
0.15153
0.115449
0.034329
-0.030082
-0.106554
-0.207847
-0.258944
-0.305932
-0.353731
-0.364229
-0.336426
-0.305634
-0.229327
-0.149796
-0.072908
0.01071
0.074596
0.143434
0.196615
0.182897
0.176957
0.152436
0.082854
-0.007402
-0.080938
-0.171866
-0.256293
-0.314511
-0.354214
-0.343801
-0.333707
-0.309683
-0.25214
-0.176296
-0.102684
-0.009013
0.061026
0.128038
0.174674
0.184109
0.165499
0.13697
0.053435
-0.017609
-0.105038
-0.183623
-0.259083
-0.318339
-0.364987
-0.366153
-0.346474
-0.32424
-0.244097
-0.17494
-0.104014
-0.006531
0.078855
0.141976
0.18023
0.185396
0.196087
0.168791
0.090504
0.007178
-0.083357
-0.162198
-0.245058
-0.299854
-0.363325
-0.370929
-0.357716
-0.323037
-0.262294
-0.179477
-0.103963
-0.019361
0.059262
0.11168
0.18014
0.208813
0.177554
0.126321
0.061508
-0.004003
-0.061911
-0.145092
-0.226357
-0.303578
-0.348445
-0.351136
-0.341501
-0.303504
-0.242073
-0.151995
-0.091944
-0.02373
0.062462
0.121007
0.166022
0.180339
0.168696
0.146262
0.083989
0.004071
-0.069181
-0.174034
-0.245032
-0.28604
-0.328097
-0.356964
-0.356894
-0.331503
-0.256603
-0.182159
-0.10646
-0.024684
0.073793
0.131022
0.164868
0.181905
0.16739
0.150395
0.085314
0.017915
-0.054014
-0.140029
-0.219284
-0.277378
-0.315971
-0.321205
-0.337647
-0.316757
-0.260041
-0.163967
-0.086217
-0.010796
0.051708
0.112734
0.154698
0.164198
0.177091
0.203996
0.111962
0.015054
-0.065641
-0.157825
-0.240441
-0.3033
-0.332235
-0.372891
-0.360753
-0.328579
-0.273818
-0.188561
-0.098037
-0.002391
0.073565
0.141276
0.163553
0.191188
0.188685
0.168068
0.118695
0.031298
-0.061853
-0.144724
-0.221321
-0.301181
-0.334579
-0.341594
-0.333766
-0.326204
-0.264213
-0.181378
-0.10234
-0.023881
0.057922
0.115575
0.158399
0.186905
0.168119
0.14691
0.098723
0.011233
-0.063118
-0.14534
-0.228174
-0.294641
-0.332601
-0.357146
-0.343569
-0.313201
-0.262691
-0.178334
-0.104088
-0.0275
0.050825
0.114468
0.154298
0.179636
0.178809
0.155636
0.09674
0.00851
-0.070203
-0.142512
-0.220419
-0.291101
-0.33163
-0.336481
-0.320133
-0.30689
-0.262699
-0.180867
-0.111116
-0.050443
0.028945
0.109794
0.160144
0.193165
0.190017
0.175128
0.127001
0.02653
-0.058715
-0.131947
-0.185458
-0.25862
-0.310825
-0.349609
-0.357972
-0.330718
-0.294993
-0.206201
-0.130321
-0.037936
0.054872
0.122322
0.174215
0.195649
0.204277
0.205245
0.160172
0.049198
-0.047098
-0.122137
-0.202827
-0.273923
-0.318181
-0.363914
-0.356835
-0.329504
-0.284957
-0.204826
-0.126021
-0.052127
0.028902
0.116395
0.156512
0.192313
0.196245
0.171886
0.13289
0.041944
-0.024127
-0.102064
-0.198985
-0.28462
-0.324047
-0.363262
-0.354302
-0.328879
-0.287976
-0.20785
-0.134642
-0.062515
0.027107
0.115295
0.183032
0.206531
0.190197
0.180929
0.142334
0.055901
-0.014346
-0.100194
-0.176899
-0.244529
-0.293731
-0.330722
-0.339743
-0.331377
-0.318181
-0.230547
-0.1532
-0.053453
0.076263
0.138425
0.183357
0.208463
0.199133
0.19004
0.148091
0.052141
-0.031172
-0.109584
-0.195935
-0.253702
-0.297674
-0.359196
-0.371919
-0.335812
-0.295983
-0.198093
-0.131146
-0.062174
0.022938
0.090129
0.146992
0.192921
0.207152
0.182847
0.14339
0.065959
-0.019055
-0.107183
-0.202071
-0.270021
-0.312136
-0.358087
-0.36188
-0.339149
-0.301653
-0.213704
-0.111914
-0.035728
