3.803210e-05
4.019610e-05
-1.514206e-03
4.617078e-03
-2.645973e-03
-7.191089e-03
7.479872e-03
3.734237e-03
2.281972e-03
-1.071901e-02
-3.975249e-03
5.527955e-04
1.025062e-02
1.434828e-02
-1.521996e-02
-9.416686e-03
9.084478e-04
5.344403e-03
-8.459802e-04
1.775527e-03
3.045149e-03
2.255618e-03
3.377949e-04
-6.493509e-03
1.141321e-03
-1.161052e-02
1.902299e-03
1.930170e-02
-4.224815e-03
-1.550847e-04
-5.288490e-03
2.649029e-04
-1.015884e-02
5.591827e-03
2.464755e-03
2.686222e-03
7.500968e-03
-4.757305e-03
6.566972e-03
-7.886898e-03
-9.529488e-03
-1.109895e-02
1.583450e-02
1.284054e-03
6.003258e-03
1.451300e-03
-7.895512e-03
4.632586e-03
3.195107e-03
1.796011e-04
-9.331698e-03
-2.491685e-03
-1.617761e-03
9.773719e-03
1.565621e-03
-1.058866e-03
-1.225251e-02
-4.792380e-03
1.065111e-02
5.698427e-03
1.088243e-02
3.182187e-03
-1.958605e-02
2.076570e-03
-5.215468e-03
2.382239e-03
1.377654e-02
-1.200715e-02
3.122835e-03
-1.133283e-02
7.711985e-03
-4.838829e-03
1.113197e-04
1.080530e-02
1.747632e-03
-8.585231e-03
1.330057e-02
-6.752526e-04
3.639494e-03
-9.261940e-03
-1.023488e-02
-2.688058e-03
2.425221e-03
4.676457e-03
-4.359731e-03
3.496986e-03
5.892543e-04
4.503437e-03
-1.976136e-03
-5.038907e-03
8.487094e-03
1.665610e-02
-1.532794e-02
-4.552003e-03
-6.559305e-03
-2.626191e-03
7.283086e-03
-6.311146e-04
1.311354e-02
-6.336719e-03
-7.581756e-03
1.462086e-04
-5.851996e-03
9.100885e-04
-2.117767e-03
1.816750e-02
-6.288590e-03
4.423675e-03
-9.186591e-03
-7.109471e-04
1.448847e-02
-4.233885e-03
3.142336e-03
-1.006795e-02
4.430783e-03
-6.450683e-03
-1.014980e-02
-3.896565e-03
4.020819e-03
7.431274e-03
8.622649e-03
-5.885758e-04
7.270643e-03
2.768318e-04
-6.462833e-03
-1.730743e-03
-6.130974e-03
4.049684e-03
1.445916e-03
-4.323028e-03
-5.396286e-03
-6.604037e-03
1.852841e-02
1.470910e-03
6.526769e-03
-1.089681e-02
-3.962538e-03
-3.415270e-03
-6.065794e-04
1.054519e-02
-1.308010e-03
-1.024387e-02
5.693295e-04
1.537412e-02
-6.452555e-03
-3.860954e-03
1.068050e-02
-9.032646e-03
3.406420e-03
-2.454227e-03
7.941986e-03
-1.301058e-02
2.663256e-03
-1.564910e-03
-2.533947e-03
3.344864e-03
-4.041061e-03
1.029780e-02
-2.883266e-03
-4.398536e-03
5.422081e-03
-2.286133e-03
5.977534e-04
3.316833e-03
6.805002e-03
-5.956476e-03
7.147019e-04
-9.288114e-03
-6.734949e-03
3.861969e-03
1.207875e-02
-9.874685e-04
7.905681e-03
-5.757088e-03
-1.803166e-02
-1.782799e-03
4.510539e-03
9.524032e-03
2.195412e-04
-5.649688e-03
9.942986e-03
6.565942e-03
5.508672e-03
-1.890183e-02
-1.904556e-03
-1.851941e-03
9.769199e-03
-9.029793e-04
-5.312256e-03
-1.487762e-03
5.137654e-03
-1.701753e-03
-4.827451e-03
6.089346e-03
-1.134233e-02
1.137261e-02
-1.433468e-04
3.901207e-03
2.330513e-03
-6.639942e-03
-8.589507e-03
3.529185e-03
-2.813445e-03
5.256739e-03
1.361020e-02
9.739038e-04
-4.115678e-03
-9.036149e-03
3.119645e-03
2.027560e-03
-5.666450e-03
-7.109285e-03
-1.334381e-03
2.847681e-03
2.055177e-03
9.870486e-03
-1.230467e-02
3.816235e-03
-3.319602e-04
1.550247e-03
-1.702832e-03
1.072924e-02
6.351937e-03
4.266788e-03
-6.650805e-03
-1.180353e-02
5.044307e-03
1.861863e-03
-1.706016e-03
-1.675716e-02
-8.744150e-03
-1.932199e-03
1.567632e-02
1.008978e-02
9.019938e-03
-1.603043e-02
6.547477e-03
-4.097739e-03
1.335598e-02
-7.446841e-03
2.701846e-03
-4.741195e-03
-4.776636e-03
4.592167e-03
-1.527551e-03
1.552860e-02
-6.461611e-03
-6.759735e-03
-5.773216e-03
-2.956525e-03
-9.843482e-03
2.882876e-03
4.865302e-04
-4.567374e-03
9.934533e-03
1.256986e-02
9.360939e-04
4.237609e-03
-4.734251e-03
9.571468e-03
7.404156e-03
3.133882e-03
-1.531286e-02
-2.067023e-02
-1.556924e-03
-5.707598e-03
2.084158e-03
3.281290e-03
-1.776379e-03
9.310192e-03
-2.887460e-03
9.681322e-03
1.219082e-02
1.033865e-04
-1.655255e-03
-1.223719e-02
-1.019419e-02
6.213166e-03
1.023073e-02
-4.204134e-03
8.093337e-03
-1.681435e-03
-1.646315e-02
7.537548e-03
-5.251940e-03
2.307243e-03
-3.655648e-03
-1.658396e-03
-6.263342e-03
9.778463e-03
6.607098e-03
-1.048740e-03
-1.339316e-03
5.910598e-03
9.158721e-03
2.863949e-03
-6.851812e-03
-1.313923e-02
-6.041237e-03
2.101217e-03
3.125480e-03
2.768800e-03
-9.714667e-03
9.303415e-03
-2.593453e-03
-2.490141e-03
1.417925e-02
-4.639653e-03
-2.173927e-03
8.748553e-03
-1.267493e-02
-4.696597e-03
-2.622592e-04
8.645300e-03
-3.277313e-03
3.471267e-04
7.967033e-03
1.178295e-02
-4.640609e-03
-1.928653e-02
3.473996e-03
5.623575e-05
-9.696834e-03
-5.223535e-04
9.399469e-03
-3.426534e-03
1.280865e-03
1.321967e-02
-2.435141e-03
3.856650e-03
1.662965e-03
-1.341349e-03
-6.834003e-03
-6.306376e-03
-6.812383e-03
8.242276e-03
4.737596e-03
-2.409224e-03
-4.595833e-03
-1.086386e-02
6.359125e-03
1.831518e-02
-1.133757e-04
-6.821339e-03
-3.735034e-03
2.442774e-03
-3.667082e-03
2.298480e-03
7.632426e-03
-4.266461e-03
-1.009023e-02
5.032411e-03
1.737726e-02
-1.243832e-02
-2.675395e-03
-7.523082e-03
-2.479061e-03
-5.718340e-03
1.734039e-02
-1.141692e-03
-1.650446e-03
9.031073e-03
-8.706510e-03
2.460049e-03
-1.639852e-03
7.927791e-03
-4.243971e-03
-8.667205e-03
-2.006658e-03
7.095442e-03
1.049023e-04
5.729929e-03
-6.061296e-03
5.018943e-03
3.406435e-03
-1.274558e-02
-2.960782e-03
-8.397133e-04
6.376089e-03
-1.206937e-02
-5.523135e-05
1.268198e-02
4.411126e-03
4.343125e-03
3.481297e-03
1.077560e-03
-3.653545e-03
2.419647e-03
-5.479614e-03
-1.488522e-02
1.007300e-02
-8.834602e-03
4.198445e-03
-1.259034e-02
9.002443e-03
-3.455664e-03
1.332873e-02
4.579020e-03
1.091861e-03
-6.447775e-03
2.436009e-03
5.746519e-04
-6.014999e-03
-5.776428e-03
5.687777e-03
-4.693706e-03
1.753644e-02
-2.591917e-03
4.367103e-03
-8.455889e-03
-1.042347e-02
-5.648901e-03
2.495610e-03
6.144999e-03
6.138512e-03
-7.201275e-03
-1.883690e-03
2.610256e-03
-1.075558e-03
3.597654e-03
-4.109496e-03
1.134876e-02
1.069495e-03
-1.094996e-02
2.110614e-03
1.473359e-02
-5.018723e-05
-6.071821e-03
-4.271912e-04
-9.851468e-03
3.688777e-03
-9.262621e-03
-1.217231e-02
6.784832e-04
1.328760e-03
2.172007e-02
7.281240e-03
-1.242662e-03
-6.858792e-03
8.931042e-03
-9.350287e-03
-3.359845e-03
8.931179e-04
2.632073e-04
1.456777e-04
-5.946805e-04
7.213764e-03
1.449354e-03
-7.580514e-03
1.982392e-03
4.494591e-03
-6.144676e-03
-1.864099e-02
3.383659e-04
9.357734e-03
2.824341e-03
8.945628e-03
-1.124127e-02
1.086056e-02
-2.568750e-03
1.063231e-02
-3.793506e-04
-2.616537e-03
-7.325902e-03
7.167788e-03
-2.203651e-04
2.108549e-03
-1.355757e-02
-1.012692e-02
8.907083e-03
-1.103480e-03
-6.028067e-03
-1.859488e-03
3.207707e-03
6.784524e-03
1.563214e-03
1.242937e-02
-3.128019e-03
9.256965e-03
-1.128018e-03
-1.016921e-02
2.927480e-03
-1.039747e-02
-3.578989e-03
-3.657926e-03
5.038995e-03
-9.208184e-03
2.913915e-03
1.826844e-02
5.287565e-03
-9.289068e-03
2.074498e-03
-3.443058e-03
-5.343135e-03
-5.686263e-03
-2.393829e-03
1.897695e-03
7.180824e-03
9.389614e-03
3.475477e-03
-8.132487e-03
1.197596e-02
-7.409224e-03
-6.536735e-03
9.632813e-04
-8.942869e-03
7.573124e-03
-7.369019e-03
9.162400e-03
-2.156067e-03
-8.683104e-03
6.291345e-03
-9.172861e-03
-8.959084e-04
1.419774e-02
6.576359e-03
-2.581238e-03
1.142627e-02
3.174674e-03
-1.203372e-02
-3.396973e-03
-1.435170e-02
-3.272838e-03
8.583525e-04
5.327661e-03
-1.417941e-03
3.388184e-03
1.338855e-02
1.278169e-03
-8.416132e-03
4.706099e-03
-6.461712e-03
-1.550485e-04
-1.077945e-03
-1.531217e-03
2.549346e-03
-5.636877e-03
5.498111e-03
1.615402e-02
-1.091156e-02
-1.073101e-02
5.531871e-03
-9.107527e-03
1.830255e-03
1.310954e-02
1.830457e-03
2.484683e-03
-5.027751e-03
1.119555e-03
-8.488177e-03
-7.894300e-03
-9.281067e-04
5.825570e-03
-2.326810e-03
8.310141e-03
4.485986e-03
-1.800863e-03
4.413541e-03
-9.755346e-05
9.457805e-03
1.358084e-03
-1.724687e-02
-9.435748e-03
-1.162714e-02
1.058472e-02
1.762731e-03
2.860107e-03
3.817482e-03
6.946202e-04
7.773296e-03
-1.375609e-03
-2.973025e-03
5.224893e-03
-3.907076e-03
-3.141476e-03
4.987255e-03
-1.635396e-02
3.142607e-03
1.539391e-03
1.645642e-02
-3.905387e-03
-1.889824e-03
-5.058691e-03
9.869294e-04
-1.568560e-02
-2.772525e-03
1.757068e-02
-3.436019e-04
5.041265e-03
6.409503e-03
-2.748458e-03
2.852466e-03
-1.707985e-02
5.645753e-03
-6.621962e-03
7.718579e-03
1.158853e-03
-1.230974e-02
8.924563e-03
3.067729e-03
-1.433898e-03
2.188934e-03
-1.092167e-04
7.224122e-03
-1.006068e-02
2.568921e-03
-5.625035e-03
-5.977345e-03
2.788664e-03
1.993495e-03
1.100886e-02
9.034020e-04
-5.000222e-03
-1.860050e-03
-2.990217e-03
6.410296e-03
1.712968e-04
-2.590797e-03
-5.466124e-03
2.910243e-03
2.670404e-03
-9.016555e-03
8.789433e-03
2.870196e-03
-1.092489e-02
1.161954e-02
-2.368462e-03
2.701737e-03
-1.005854e-03
-2.938351e-03
-5.495948e-03
1.042486e-03
-1.300429e-03
-5.021103e-03
1.025359e-02
1.690387e-03
-3.668693e-04
-7.437064e-04
-7.860690e-04
1.653863e-03
1.089239e-03
8.303232e-03
-6.950933e-03
-1.688525e-03
-3.314176e-03
3.020029e-03
-1.478159e-02
-3.858892e-03
1.272315e-02
5.078733e-03
-8.240007e-03
1.203375e-02
2.041488e-03
-2.686902e-03
-1.143095e-02
9.185537e-03
5.933433e-04
-4.228815e-03
2.316627e-03
-1.000879e-03
5.065165e-03
1.077219e-02
-1.802230e-02
5.024440e-04
-9.711106e-03
8.770015e-03
3.116443e-03
-9.019770e-03
7.270739e-03
-7.371277e-03
7.281435e-03
-3.413559e-04
1.450967e-03
-2.820192e-03
1.307010e-02
7.213911e-03
-1.530091e-02
1.654529e-03
-3.585923e-03
-1.614050e-03
-7.710853e-03
1.298838e-02
-3.216023e-03
-5.004463e-03
6.634475e-03
-1.253082e-02
6.939341e-03
2.838193e-03
9.140371e-04
2.587711e-03
-5.532549e-03
4.140839e-04
8.979701e-03
-1.253369e-02
2.981362e-03
3.219892e-03
1.474871e-02
-9.333293e-03
1.717705e-03
-5.910797e-03
-7.808364e-03
-5.024604e-03
8.884484e-04
1.269500e-02
-8.571185e-03
6.598137e-03
2.778585e-03
3.286997e-03
-5.496101e-03
7.969339e-03
-6.142331e-03
-9.468313e-03
-1.022509e-02
5.404141e-03
1.868252e-02
-6.180581e-03
4.083178e-03
4.329866e-03
-3.724259e-03
-8.267573e-04
-3.059969e-03
-1.771613e-03
-1.136338e-02
7.879060e-03
5.962974e-04
-1.774411e-03
5.404419e-03
9.237013e-04
7.295205e-03
-2.202034e-03
-1.685745e-03
-1.933851e-02
-4.694054e-03
1.520753e-02
4.462110e-03
2.588130e-03
-4.856582e-03
1.200121e-02
2.297974e-03
-1.518042e-02
5.386318e-03
3.009817e-03
-9.825469e-03
7.934423e-03
-4.914163e-04
-6.824663e-03
-4.662820e-03
5.146518e-04
-2.500721e-03
3.472549e-03
9.185953e-03
-4.471631e-03
-3.409976e-03
5.191179e-03
8.417568e-03
1.971585e-04
-2.632453e-03
-6.331544e-04
-1.464763e-02
-7.318021e-04
1.675716e-02
-3.605520e-03
8.784142e-03
-1.357966e-03
-5.794705e-03
-1.051705e-02
-2.469857e-03
-3.037925e-03
-2.395767e-03
-2.336256e-03
6.346785e-03
6.854461e-03
3.390819e-03
8.034728e-03
1.128081e-02
-8.021352e-03
-1.155764e-02
1.160013e-04
-2.917356e-03
1.391993e-02
2.086599e-03
-1.679377e-02
4.067647e-03
-5.546562e-03
-6.203550e-03
-2.800229e-03
5.014923e-03
-5.771043e-03
3.912429e-04
1.175793e-03
2.030406e-02
1.013367e-02
-3.237060e-03
-3.815345e-03
-6.136194e-04
3.257845e-03
-7.637293e-03
-1.975094e-03
-4.851222e-03
-8.711345e-03
-6.827072e-03
5.553916e-04
7.400556e-03
5.513485e-03
1.150178e-02
-7.789528e-03
2.012926e-03
-1.967214e-03
5.742623e-03
-4.797771e-03
-4.178390e-03
2.560615e-03
4.743233e-03
1.120137e-03
-7.401468e-04
-1.212187e-02
6.375953e-03
1.157508e-03
-6.820840e-03
7.960374e-03
6.973385e-03
-5.913294e-03
-2.153429e-03
5.586908e-03
-1.628060e-02
-6.736920e-03
1.187224e-02
-4.803860e-03
1.343596e-02
1.074507e-03
-1.263578e-03
1.105894e-02
-1.175532e-02
3.331832e-03
-1.822166e-03
-2.548453e-03
2.971992e-03
-2.851887e-03
2.990675e-04
-1.393311e-02
-7.551315e-04
-2.932119e-03
1.032416e-02
1.023639e-02
-1.172489e-02
6.359286e-03
6.359619e-03
-4.520024e-03
1.403743e-02
4.679247e-03
-1.495785e-02
1.427620e-03
-6.308819e-03
-9.484917e-03
-1.372262e-03
-5.908304e-03
1.233454e-02
3.588190e-03
-1.104683e-02
8.204368e-03
6.956516e-03
-3.865812e-03
1.182836e-02
-8.068642e-03
6.270979e-03
-3.081662e-03
-4.563317e-03
7.895879e-04
4.987994e-03
-8.135059e-03
-6.498268e-03
-3.804406e-03
1.046269e-02
-4.993459e-03
-1.430177e-03
-3.407533e-03
3.429511e-03
-4.497859e-04
-1.592991e-03
1.569018e-02
1.355691e-02
-2.477116e-03
-4.684271e-03
-1.088421e-02
-1.131598e-02
8.298841e-03
7.416097e-03
-3.244513e-04
-9.790691e-03
-1.883712e-02
9.088144e-03
6.408586e-03
-3.182341e-03
5.275899e-03
2.804764e-03
8.927607e-03
-1.057576e-02
8.801975e-03
8.097297e-03
1.372612e-03
6.718063e-04
-1.218497e-02
2.127824e-03
-8.741201e-03
-7.739815e-03
-9.337510e-03
1.449032e-02
7.834016e-03
-7.784627e-03
1.812074e-03
3.241944e-03
-1.328630e-03
-4.088351e-03
5.086629e-03
3.486337e-03
-3.386698e-03
1.513048e-02
4.371510e-03
-1.663086e-02
3.065354e-03
-1.223185e-02
6.352791e-03
-6.965080e-03
5.458864e-03
6.307454e-03
-7.902058e-03
-1.808553e-03
6.055192e-03
-1.624327e-03
-1.361544e-02
1.064735e-02
6.612585e-03
3.699630e-03
-7.035131e-03
1.000115e-02
-2.243828e-03
-5.599697e-03
-1.072662e-02
1.262492e-02
8.637232e-04
-3.240227e-03
1.642516e-03
1.723449e-03
8.315066e-04
-3.830047e-03
-8.480992e-03
3.715866e-03
8.905220e-03
-7.820217e-03
-1.708986e-02
3.060269e-03
8.625771e-03
1.228060e-02
-1.682824e-03
-8.971798e-04
6.070600e-03
6.993155e-03
3.731412e-03
-1.112585e-02
3.496848e-04
-4.276455e-03
-1.455502e-02
7.639806e-03
3.572721e-03
-9.323538e-03
-2.438384e-03
5.601035e-03
-5.145944e-03
-1.221933e-02
1.125923e-02
1.918782e-02
-2.430741e-05
6.465149e-03
1.062031e-02
-9.325600e-03
-2.894305e-03
-1.236765e-03
-5.490134e-03
-1.158527e-02
6.710889e-05
-1.485492e-02
9.394052e-03
-2.856152e-03
1.103968e-02
1.699872e-03
-2.698098e-03
4.293249e-03
1.718115e-04
9.689570e-03
4.073009e-03
-3.884827e-03
-6.210574e-03
-1.071976e-02
1.240799e-02
1.655240e-03
-4.415540e-03
-1.280362e-02
8.540501e-03
-3.291871e-03
3.571088e-03
4.199285e-04
-1.226587e-03
5.594373e-04
4.570424e-03
-4.944324e-03
9.265735e-04
-1.063618e-03
-4.432952e-03
-8.630087e-04
6.034024e-03
1.383908e-02
-1.167995e-03
3.990625e-03
-1.716525e-03
-8.876113e-03
-1.110093e-02
-1.906214e-02
1.294403e-02
4.501197e-03
6.595984e-03
1.239887e-02
-8.292782e-03
-5.531141e-03
4.240736e-03
1.662298e-03
5.486648e-03
-7.496990e-03
-2.343583e-03
2.695398e-03
3.130002e-03
-6.855222e-04
-4.607291e-03
-5.296257e-03
-1.890588e-03
-3.844061e-04
7.450059e-04
1.498048e-02
-6.192290e-03
-3.190750e-03
1.110066e-02
-9.961208e-03
7.898304e-03
-4.800407e-03
1.846513e-03
-2.287026e-04
2.494202e-03
-9.609535e-03
-4.496315e-03
-2.671360e-03
6.049118e-03
1.166746e-02
-1.746678e-02
2.031591e-03
-5.881178e-03
1.731688e-02
4.157014e-03
4.338090e-03
1.145641e-02
-1.576855e-02
4.889236e-04
-1.087733e-02
2.838258e-05
-3.064963e-03
2.466796e-03
-8.002706e-03
-2.578717e-03
-3.527782e-04
1.273060e-02
7.386289e-03
4.707727e-03
-1.247781e-02
5.995214e-03
4.439408e-03
3.181348e-04
3.009305e-03
3.145608e-03
-1.668629e-02
-1.099421e-02
-3.650064e-03
8.437036e-03
3.354760e-03
-5.706460e-03
1.599062e-02
2.516440e-03
-2.697477e-03
-5.023513e-03
-8.530385e-04
1.853773e-03
-4.775251e-04
1.107445e-02
-5.548368e-03
-1.140078e-02
4.321021e-03
4.819279e-04
-1.022724e-02
-1.240578e-05
1.286414e-02
-8.539945e-03
-2.577614e-03
1.388604e-02
-4.834352e-04
1.214719e-03
6.274238e-03
-1.363705e-03
1.022188e-03
-1.813799e-02
-2.899831e-03
6.415679e-03
-6.280131e-03
2.989393e-03
4.608169e-03
-5.378660e-04
-2.874122e-03
5.559525e-03
-5.226937e-03
7.451359e-03
6.007787e-03
6.854867e-03
-1.809011e-02
-3.631219e-04
-1.567423e-03
3.785951e-03
9.180301e-03
-3.809125e-03
-5.392616e-03
-5.533092e-04
7.466995e-04
6.070023e-04
-1.210881e-02
7.489539e-03
-9.312262e-03
7.319976e-03
4.435955e-03
2.537096e-03
9.853444e-03
-2.879614e-03
1.037241e-02
-1.394402e-02
-1.786304e-03
-5.087250e-03
-2.628188e-03
6.663029e-03
-2.337630e-03
1.219405e-02
-1.375132e-02
-3.559768e-03
-7.482565e-03
-1.072006e-03
1.523348e-03
1.206800e-02
1.175522e-02
9.283509e-04
-1.054896e-02
2.042402e-03
-2.101891e-03
1.407138e-02
-1.054773e-03
-1.504504e-02
3.344803e-03
-9.868478e-03
-2.927568e-03
9.249508e-03
-2.581221e-03
-1.116888e-03
-5.501160e-03
1.382113e-02
7.419177e-04
-6.808290e-03
-2.864576e-03
3.765023e-03
5.616017e-03
6.478772e-03
-6.304215e-03
4.447747e-03
5.513635e-04
-1.400373e-02
-4.475759e-04
5.313031e-03
2.221643e-03
-3.999399e-03
2.983999e-03
-4.576848e-03
-2.297741e-03
5.871563e-03
-3.844131e-03
7.981974e-03
-3.100137e-03
-1.432393e-02
6.501645e-03
5.743990e-03
7.940567e-03
1.456164e-03
5.672695e-03
-1.262661e-02
3.859173e-04
1.967041e-03
-4.118234e-03
4.369495e-03
-4.124710e-03
-9.529886e-04
-8.490856e-03
3.393693e-03
3.951222e-03
-2.224662e-03
-1.072060e-03
-4.300449e-03
3.538075e-03
4.975952e-03
1.046184e-02
-1.795132e-03
6.234989e-04
-1.209971e-03
8.452597e-03
2.241518e-03
-8.869622e-03
-1.277181e-02
-1.065170e-02
5.840711e-03
-1.038281e-02
1.091281e-02
-4.527050e-03
9.560953e-03
5.979786e-04
-1.797074e-03
1.702490e-02
-1.613284e-03
1.229803e-02
-9.258507e-03
2.982882e-04
-1.025594e-02
-1.307413e-02
-9.146425e-03
2.427369e-03
-2.000419e-03
6.381721e-03
1.748644e-02
-3.390240e-03
4.077445e-03
1.269048e-02
-2.177921e-03
-2.436576e-03
-9.519019e-03
-1.855177e-02
2.595422e-03
-8.574271e-03
9.646154e-04
8.480518e-03
1.092721e-02
-2.615722e-03
9.078781e-03
9.020530e-03
5.821337e-03
-1.237219e-02
-9.197794e-03
2.304054e-03
-9.245017e-03
3.632242e-03
-1.445916e-04
-7.611917e-03
2.731591e-03
1.064987e-02
-6.564637e-03
-5.430020e-03
-3.523594e-03
9.659581e-03
1.430704e-02
-4.861540e-03
-7.891393e-03
9.244788e-04
6.554303e-03
7.692832e-03
-8.068289e-03
6.796642e-03
-1.209934e-02
-5.838455e-03
3.232409e-04
-1.891597e-03
3.278177e-03
-2.213447e-03
-8.762880e-03
7.006962e-03
5.568106e-03
5.086204e-03
-4.167614e-03
-8.210618e-03
1.606974e-02
1.588781e-02
-9.375229e-03
3.381282e-03
-1.455104e-02
-7.704922e-03
-6.222687e-04
-6.569189e-03
4.905555e-04
5.803678e-03
9.849122e-03
-8.667952e-03
1.203055e-02
-4.132635e-03
4.478574e-03
-7.399424e-03
3.886997e-03
-1.077123e-02
1.300371e-03
3.969725e-03
1.037160e-02
-1.033935e-02
-3.388902e-03
9.944148e-03
1.419362e-05
-7.969273e-03
3.524687e-03
4.834755e-03
5.312090e-03
-8.144815e-03
-1.084262e-02
5.838877e-03
4.425047e-03
-1.747300e-03
-2.008593e-03
-1.159774e-02
1.093041e-02
-6.201366e-03
1.142007e-02
-2.788811e-03
9.003598e-03
3.435426e-03
-1.845969e-03
-4.226960e-03
-7.570521e-03
-1.366691e-03
-7.671773e-03
2.262972e-03
4.729880e-03
9.458412e-03
-9.990381e-04
-1.163856e-02
1.104299e-02
2.072368e-03
-2.674439e-03
-1.185794e-02
8.413100e-03
-4.534242e-04
-2.266033e-03
-5.823480e-03
7.439782e-03
6.298352e-03
-2.027383e-03
-4.950736e-03
-4.353034e-03
8.010900e-03
7.980359e-04
1.662488e-04
2.884670e-03
1.045466e-03
-6.538252e-04
-1.058649e-02
-2.545685e-03
1.020741e-02
-1.201555e-02
7.073475e-03
-2.729708e-03
7.524240e-03
-6.814827e-03
-1.286900e-03
-2.802926e-04
-3.026194e-03
4.433285e-03
4.059941e-03
8.982867e-03
1.275171e-03
1.511494e-02
-7.059443e-03
-1.787139e-02
-1.294835e-02
3.475950e-03
-9.257855e-03
2.587935e-03
1.961740e-02
-4.728521e-03
8.478317e-03
-1.052771e-02
5.781206e-03
-8.440692e-03
-2.793565e-03
1.128381e-02
-7.524336e-03
3.580878e-03
5.957625e-03
1.508927e-03
5.279173e-03
-7.072864e-03
-4.167621e-03
-3.014909e-03
1.088068e-02
-6.156938e-03
-3.588808e-03
-2.710660e-03
-6.863203e-03
2.479317e-03
-2.810298e-04
-7.112981e-03
1.459840e-02
3.178873e-03
-5.900588e-03
-2.352711e-04
-3.168539e-03
1.802974e-02
1.063743e-02
-7.440754e-03
8.406579e-03
-2.652917e-03
-1.250775e-02
-1.394855e-02
-8.464608e-03
1.657969e-03
-1.628600e-02
6.615761e-04
1.438535e-02
8.978449e-03
6.531229e-03
1.812518e-02
-5.249398e-03
-2.241694e-03
-2.424425e-03
4.991523e-03
-1.075944e-02
-5.141496e-03
1.014170e-02
-1.196718e-03
-1.269713e-02
8.794458e-04
3.554038e-04
-8.962475e-03
2.778302e-03
2.012836e-03
5.781183e-03
-4.999971e-03
1.376164e-03
2.419453e-03
1.037151e-02
1.123454e-02
-9.620058e-03
-1.057848e-02
1.061659e-03
1.134641e-02
1.204968e-03
9.722943e-03
-1.576547e-02
-3.161416e-03
-1.817574e-02
1.374832e-03
-8.916358e-04
6.452458e-04
1.431489e-03
9.133090e-03
7.018042e-03
-4.427711e-03
7.676118e-03
5.867407e-03
1.967342e-03
-1.203990e-03
1.399497e-03
-6.034937e-03
-3.615291e-03
-3.908703e-03
-3.936417e-03
-1.620180e-02
7.551935e-03
4.327563e-03
-1.926172e-03
7.985423e-03
7.451254e-03
4.996683e-04
-6.306741e-04
-4.615663e-03
-7.533057e-03
5.872915e-03
1.290943e-02
-1.470670e-02
3.435922e-03
-7.177441e-03
1.472160e-02
-1.504706e-03
7.873381e-03
-2.836812e-03
-1.427380e-02
-4.289953e-03
-2.682602e-03
-7.456923e-03
2.164338e-03
-8.345999e-04
5.912732e-03
1.292207e-02
1.386953e-02
-4.723766e-03
7.120316e-03
-1.608225e-02
1.116867e-03
-9.900390e-03
6.170889e-03
-4.701437e-04
5.135156e-03
-5.558392e-03
-1.391116e-02
4.455391e-04
1.192739e-02
-1.413439e-03
-4.613624e-03
7.281123e-03
8.670803e-03
5.731782e-03
-7.457959e-03
1.475909e-04
-6.717767e-03
-1.138136e-02
-3.987527e-04
6.585415e-03
6.638273e-03
1.980139e-04
5.882120e-03
-3.047626e-03
-5.659866e-03
1.432808e-02
-6.804507e-03
-5.832126e-03
-4.729993e-03
-5.283170e-03
-2.225199e-03
-8.021587e-04
1.081425e-02
4.207464e-03
-4.882954e-03
6.474685e-03
4.399201e-03
-3.373359e-03
-3.543080e-03
-2.318833e-03
-4.249526e-03
1.812016e-02
6.050550e-03
-1.742846e-02
-3.130941e-03
-9.344794e-03
-5.473226e-03
-6.582074e-03
1.726261e-02
8.147634e-03
6.566278e-04
2.810070e-03
6.460712e-04
2.000753e-03
4.353748e-03
-8.320610e-03
-9.232259e-03
-2.127118e-03
4.863882e-03
-3.833051e-03
8.575397e-03
-4.046530e-03
-4.578393e-03
-7.351913e-03
1.549454e-02
8.305567e-03
-1.038536e-02
6.486554e-03
-1.537470e-03
-5.824941e-03
-2.757365e-03
1.892611e-03
-4.748112e-03
9.591336e-03
-1.028738e-02
4.891994e-03
-2.650801e-03
-2.183772e-03
1.315671e-02
7.355142e-04
-2.162586e-03
-6.519058e-03
3.431933e-03
8.474171e-03
-9.771764e-03
-6.521184e-03
4.566435e-03
2.420095e-03
-2.159201e-03
-1.307755e-03
2.643207e-03
-9.587693e-03
6.073080e-03
-5.187174e-03
5.294514e-04
-1.145037e-03
1.999020e-02
3.333211e-03
3.885473e-04
2.763585e-03
-1.032639e-02
-1.886071e-02
5.334631e-03
1.303078e-03
1.788736e-03
-2.871608e-03
6.411490e-03
-9.502273e-03
6.215295e-03
3.587020e-03
1.035942e-02
-1.421718e-02
3.008640e-03
-7.973171e-03
8.376490e-03
2.871032e-03
-1.699454e-03
5.089662e-03
3.538305e-03
-2.247595e-03
-1.520058e-04
-1.225311e-02
5.619166e-03
-8.577262e-03
-3.163470e-04
8.977748e-04
-2.756112e-03
9.405082e-03
1.387460e-03
2.203962e-03
-6.563529e-03
3.654840e-03
4.885426e-03
1.014355e-03
-5.220064e-03
7.027867e-03
-7.150853e-03
-1.063713e-03
9.413171e-03
-9.945021e-03
-8.346047e-03
-9.410727e-04
5.845152e-03
3.053938e-03
6.530039e-03
-1.815029e-03
-4.404982e-03
7.684566e-03
-3.799009e-04
-1.564756e-02
4.103406e-03
-3.371463e-03
2.246211e-03
-1.409279e-03
1.046455e-02
1.112294e-02
1.502616e-03
-8.779058e-03
-4.499257e-03
1.162636e-03
-5.738540e-03
-3.063624e-03
-3.817199e-03
7.187961e-03
-7.225936e-03
1.992065e-03
1.396818e-02
-3.181451e-04
-4.986451e-03
1.015073e-03
-6.206325e-03
8.730389e-03
-3.898178e-03
-5.594213e-03
-9.034212e-03
1.735293e-02
1.323357e-03
1.996644e-04
6.420258e-03
-6.966782e-03
-4.980995e-03
-5.341125e-03
7.348376e-03
8.788073e-04
-9.672768e-04
-1.096761e-02
-9.031314e-03
1.126417e-02
1.295052e-02
2.407877e-03
-6.543683e-03
-1.441366e-03
-5.246171e-03
1.841204e-03
1.188350e-02
1.392311e-03
-9.873359e-03
2.146520e-03
5.794728e-03
-4.771579e-03
-1.542866e-02
5.551592e-03
7.972323e-03
-6.129660e-03
-1.488141e-05
1.118789e-02
-1.301287e-02
5.692464e-03
-6.051341e-03
1.069953e-02
2.359462e-03
-7.487460e-04
-6.846202e-03
3.780165e-03
2.321951e-03
-7.142045e-03
1.778128e-03
-9.492341e-03
2.842593e-03
1.869917e-02
-7.931552e-03
3.990980e-03
-9.320672e-03
-1.980299e-03
2.963398e-03
3.732363e-03
-4.712377e-03
5.282719e-03
-6.435114e-03
-1.830399e-03
8.370304e-03
-1.288528e-02
3.368195e-03
-6.095264e-03
3.898229e-03
1.617966e-02
3.326711e-03
-9.971457e-04
4.916452e-03
-4.805892e-03
4.294068e-03
-5.745441e-03
-2.387259e-02
1.247473e-03
-4.178014e-03
2.840095e-03
8.422595e-03
2.617201e-03
6.001655e-03
-1.768062e-03
-5.272252e-03
1.409344e-02
-1.200112e-03
7.294994e-03
-5.723462e-03
-8.970216e-03
-2.366635e-03
2.780994e-03
4.993440e-03
-6.049177e-03
-3.116443e-03
5.021554e-03
-1.509418e-02
-5.108862e-03
1.563975e-02
-8.854328e-04
4.771288e-03
3.190768e-03
7.644369e-03
-1.553411e-02
2.958060e-03
1.190587e-03
3.124891e-03
-3.981876e-03
8.731173e-03
-3.573617e-03
2.299517e-03
-1.500210e-02
3.870823e-03
9.742752e-04
1.213202e-02
-1.152042e-02
3.756584e-03
-9.107114e-03
-2.820381e-03
9.585637e-03
-5.521559e-03
-2.845893e-03
1.535466e-02
-5.388336e-03
7.233934e-03
1.039293e-03
-7.800269e-03
2.633016e-04
1.092764e-02
-1.400033e-02
4.018796e-03
-5.299200e-03
1.413657e-03
1.119201e-02
-1.194062e-02
-8.678656e-03
7.365977e-03
-1.170176e-02
5.631470e-03
5.678232e-03
-1.824732e-03
7.441166e-03
1.443960e-02
-3.643249e-03
-6.872888e-03
1.966698e-03
-3.201111e-03
7.896638e-03
-8.314041e-03
-2.243325e-03
-1.982891e-02
5.439049e-03
-1.836257e-03
1.001482e-02
2.681551e-03
7.259543e-03
-8.634647e-03
-1.718387e-03
7.767218e-03
7.785634e-03
-1.821354e-03
1.489110e-03
-2.019971e-03
-1.242994e-02
8.653646e-03
-1.238635e-03
-5.751152e-03
-1.339958e-02
8.427389e-03
1.517876e-03
1.114016e-03
-4.533074e-03
1.507162e-02
6.032652e-03
-9.719232e-03
-2.127768e-03
1.045142e-02
-1.036152e-02
-4.119467e-03
9.754283e-03
1.139205e-03
-1.080813e-02
8.607126e-03
5.899860e-04
-1.027731e-02
-6.442103e-03
6.502449e-03
5.894241e-04
-9.942350e-03
1.376932e-02
-5.817014e-04
1.330337e-02
-7.302542e-03
2.392768e-03
-6.528927e-04
-3.477627e-03
3.719661e-04
-2.170688e-05
1.863871e-03
-2.853615e-03
1.175687e-03
-1.966802e-02
4.929150e-03
-9.528243e-04
6.113938e-03
9.728441e-03
-2.933788e-04
-1.192252e-02
4.711698e-03
1.018686e-02
3.453139e-03
3.796406e-03
-9.658201e-03
6.949182e-03
-9.617069e-03
4.424295e-03
-8.312791e-03
-4.160415e-04
-1.355765e-02
8.219690e-03
-1.637871e-03
7.180633e-03
6.504190e-03
-5.054730e-03
1.005203e-02
1.798187e-05
-8.400354e-03
-5.529705e-03
1.227608e-03
-2.170073e-03
1.426613e-02
-5.598616e-03
-3.419040e-03
8.137617e-03
7.494187e-04
-1.122861e-02
1.266276e-02
-7.723160e-03
6.469888e-04
-6.175939e-03
-1.386974e-02
5.357571e-03
1.039573e-02
-1.013649e-05
-1.412588e-03
8.930570e-03
1.229398e-04
-8.862456e-03
2.356133e-03
1.386405e-02
-1.264824e-02
3.654569e-03
-7.554874e-03
8.883928e-03
4.958601e-03
-1.038885e-02
7.354098e-03
-7.092516e-03
-5.021697e-03
-8.415630e-03
3.659625e-03
-4.061484e-03
1.127582e-02
8.274118e-04
1.492010e-03
-2.452343e-04
8.930976e-03
-7.587309e-03
5.883260e-03
1.777856e-04
7.839556e-03
-1.268948e-02
-6.951497e-03
7.938250e-03
-6.398540e-03
-2.380708e-03
2.640474e-03
1.064896e-02
-1.435632e-02
3.402714e-03
-5.453009e-03
-9.363422e-04
1.233488e-02
-7.469040e-03
-2.177051e-03
1.382372e-02
-4.306332e-03
8.528066e-05
1.059744e-02
-3.405023e-03
-7.372717e-03
-1.459623e-03
-3.343312e-03
6.310674e-03
-3.775364e-03
-6.560182e-03
-1.401234e-03
4.322363e-03
4.737623e-03
-1.268495e-03
-1.107088e-03
4.721017e-03
-1.565518e-02
1.574197e-03
4.798289e-03
5.762356e-03
8.556072e-03
-4.388607e-03
9.582637e-03
-8.350505e-03
-2.476000e-03
-2.069959e-03
1.781686e-03
2.695977e-03
-1.740125e-03
-1.906700e-04
-8.358936e-03
-4.775086e-03
-9.346826e-03
-3.011201e-05
1.320701e-02
5.670779e-03
1.469594e-02
-5.084959e-03
-7.867860e-03
-1.128925e-02
1.302241e-02
8.046361e-03
-8.222710e-03
7.374339e-03
-3.816400e-03
-1.974504e-03
-1.122616e-02
-1.316690e-03
1.175507e-02
-1.204923e-02
3.226446e-03
1.364243e-04
-4.372160e-04
1.375027e-03
4.361967e-03
-7.786173e-03
7.609021e-03
-1.497868e-03
-2.990855e-03
6.453640e-03
1.663418e-03
1.648341e-02
-1.192062e-03
-8.090542e-03
-1.622881e-02
5.426990e-03
-7.442393e-03
2.416686e-03
-6.088506e-03
-5.853547e-03
6.614724e-03
7.054122e-03
1.237090e-03
-9.697980e-04
-1.615302e-03
1.114924e-02
-2.820545e-03
5.399986e-03
6.635060e-03
-1.393612e-03
-7.136534e-03
-9.783623e-03
8.593870e-04
-2.617395e-03
-8.114570e-03
4.634710e-03
7.446407e-03
-6.991606e-03
-4.728242e-03
-8.437940e-03
1.731019e-02
1.370919e-02
-4.431627e-03
9.688921e-03
-1.239411e-03
-7.681347e-03
-4.272668e-03
-3.050798e-03
-3.624857e-03
6.173523e-03
-4.812052e-03
-1.326211e-02
3.192417e-03
1.258004e-02
5.747628e-04
-5.359475e-03
5.526994e-03
-3.529064e-03
1.005916e-02
-5.743752e-03
6.624730e-04
6.128076e-03
1.686736e-03
-1.436646e-02
5.091644e-03
-5.902255e-04
-2.689411e-03
6.105971e-03
-1.503862e-02
6.181296e-03
-4.863125e-03
1.184337e-02
-1.147329e-03
-8.759952e-04
6.666264e-03
-4.672852e-03
-1.740137e-03
-2.227315e-03
8.572737e-03
5.185647e-03
-8.429476e-03
-9.322989e-03
-3.373515e-03
5.734118e-03
3.615283e-03
-5.175432e-03
1.334879e-02
-3.206849e-03
-3.319526e-03
-1.143686e-02
3.651485e-03
6.311635e-03
6.627038e-03
-4.802523e-03
-9.927615e-04
3.893943e-03
-3.733270e-03
-1.904513e-03
-4.176520e-03
6.474296e-03
-9.499605e-03
5.851942e-03
5.931194e-03
1.153137e-02
-1.010674e-02
-5.691893e-03
-1.832151e-04
-3.992931e-03
1.124421e-04
-1.093398e-02
7.691477e-03
4.951465e-03
-5.487363e-04
1.681004e-02
-3.786236e-03
-1.389139e-03
-1.014507e-03
-1.643794e-03
-2.408356e-03
-6.659583e-03
-1.353682e-04
-3.541903e-03
4.235773e-03
-2.178127e-03
-6.834919e-04
-7.725597e-03
3.939129e-03
8.412668e-03
1.853070e-02
5.561040e-03
-2.131869e-03
-2.697125e-02
-1.140366e-03
-6.538033e-03
1.210864e-02
-6.757297e-04
4.241420e-03
8.842327e-04
-9.750446e-03
1.810213e-03
1.472932e-02
-8.080129e-03
7.223553e-04
7.503654e-04
-6.174056e-03
4.591839e-03
4.263683e-04
3.319270e-03
-1.712904e-02
4.668850e-03
8.096456e-03
-3.539955e-03
1.405843e-02
-5.893365e-03
1.547034e-04
-1.078602e-02
-9.358398e-04
1.070920e-02
-9.963786e-04
-5.082488e-03
-1.717377e-03
1.349129e-02
-1.166389e-02
1.412313e-03
-1.025366e-02
-8.901175e-04
1.255957e-02
3.065516e-04
9.399775e-04
-3.873217e-03
1.088133e-02
-3.218692e-03
3.083208e-04
-1.288307e-02
-3.789939e-03
6.496225e-03
1.302149e-02
-1.368956e-03
-1.233386e-02
7.341270e-03
-7.123619e-03
6.366726e-03
-6.529576e-03
-7.501951e-03
1.164568e-02
-3.645969e-03
3.669447e-03
3.100066e-03
7.702946e-03
-1.248357e-02
-1.760865e-03
3.877503e-03
4.627171e-03
7.638296e-04
-9.740043e-03
2.352809e-03
1.357944e-02
-8.415627e-03
-8.039102e-03
3.398974e-03
-4.537657e-03
-8.273751e-03
9.422895e-03
-1.255711e-03
6.493515e-03
5.140991e-03
-1.076778e-02
4.765133e-03
1.110174e-02
-4.980145e-03
6.898322e-03
-3.953747e-03
-5.786897e-03
-1.306333e-02
8.522209e-03
-5.237403e-03
-2.901894e-03
-1.380105e-04
5.349140e-03
5.592182e-03
2.871628e-03
6.764183e-04
-3.327791e-03
5.005492e-03
-8.381529e-03
-9.097021e-04
2.005193e-03
-6.998773e-04
4.877607e-03
-1.621199e-04
-3.741758e-03
1.634123e-03
5.530814e-03
-4.979846e-03
-5.261737e-03
-1.485130e-03
4.728019e-03
-6.294576e-03
1.008549e-02
-1.091671e-02
3.332349e-03
3.370735e-03
-3.364995e-03
1.460407e-02
3.741045e-03
-6.643342e-03
-1.346926e-03
-2.042955e-02
1.701095e-03
2.730653e-03
4.915355e-03
8.354155e-03
9.770709e-03
-5.977931e-03
-1.738143e-03
-8.868093e-04
3.842913e-03
-7.995969e-03
-1.064706e-02
-4.091809e-04
4.683366e-04
1.399214e-03
-3.838741e-03
6.291332e-03
1.316395e-02
-3.976780e-03
1.309972e-02
-2.024352e-03
-2.501159e-04
1.055375e-03
-1.327946e-02
-7.505600e-03
-1.149146e-02
6.053951e-03
1.126793e-04
-3.206912e-04
1.753448e-02
-5.420466e-03
4.617685e-03
-3.148430e-03
-1.980114e-03
-2.643880e-03
3.779171e-03
1.291814e-02
-1.397695e-02
3.896423e-04
-1.288165e-03
1.814583e-03
3.227760e-04
2.326780e-03
7.578913e-04
-3.469063e-03
-1.524068e-02
3.751076e-03
2.988015e-03
3.999554e-03
8.722579e-03
-3.339588e-03
8.145514e-03
-4.678694e-03
-1.277744e-02
7.683481e-03
3.124914e-03
1.534288e-03
2.314248e-03
2.224290e-03
-1.053783e-02
9.376292e-04
-1.333666e-02
-2.644525e-03
2.667813e-03
1.458338e-02
-1.973184e-03
4.246746e-03
1.600144e-02
-8.888500e-03
-5.617770e-03
-5.187134e-03
8.893593e-04
-4.796381e-03
-9.799656e-03
1.356432e-02
5.529822e-03
-2.711346e-03
2.453428e-03
-1.390971e-02
-4.604933e-03
1.264626e-02
4.767955e-03
-6.338485e-03
5.659958e-03
5.837900e-03
4.411905e-03
-1.620645e-02
4.695904e-03
1.828275e-03
9.234496e-04
-7.365409e-03
1.074578e-03
-1.778397e-03
-6.411982e-03
-7.145411e-03
1.025138e-02
2.622699e-04
8.370217e-03
1.858889e-02
-9.142085e-03
-9.244779e-04
-1.386208e-02
6.567652e-03
-5.542360e-03
-1.107058e-03
1.149892e-02
-1.132433e-02
2.740946e-03
-2.102548e-03
-9.325573e-04
-6.097538e-03
5.612629e-03
1.407343e-03
6.192281e-03
-1.167503e-02
5.993208e-03
1.445054e-02
-1.797334e-03
-9.644821e-04
2.875995e-03
-1.295042e-02
-9.941777e-03
-6.682590e-03
1.323062e-02
8.525918e-03
1.193641e-03
-2.776923e-03
-1.793875e-03
-2.224750e-03
5.825484e-03
-2.030886e-03
-1.162978e-02
6.229701e-03
-2.167461e-03
4.048603e-03
-6.687240e-03
-1.310608e-03
1.191652e-02
8.404257e-03
7.361214e-03
-1.037581e-02
-8.067575e-03
-2.404473e-03
3.502518e-05
1.664226e-03
-6.763253e-03
5.839741e-04
7.731716e-03
-1.698284e-03
-8.654644e-03
1.023214e-02
4.942856e-03
-4.108311e-03
-3.654907e-03
-1.192704e-02
1.098160e-02
-2.309813e-03
3.359926e-03
1.492689e-02
3.574664e-03
-2.746657e-03
-4.202761e-03
5.686275e-03
-1.383359e-02
-1.810057e-02
-6.496965e-03
2.946479e-03
6.740826e-03
5.818763e-03
4.519425e-03
1.431710e-02
-4.610896e-03
1.262555e-03
2.525523e-03
-2.728536e-03
-8.637852e-03
2.121789e-03
-5.214678e-03
1.261510e-03
8.840933e-03
4.409924e-03
-4.945779e-03
-1.080338e-02
-1.478796e-02
1.342934e-02
-8.809901e-04
8.252623e-03
-8.843117e-03
1.021802e-02
-5.316224e-03
1.114209e-02
-4.342199e-03
6.166826e-03
-9.581108e-03
7.832370e-03
-1.002210e-02
3.013379e-03
-5.187212e-05
-1.056235e-02
1.187742e-02
-2.188607e-03
3.462841e-03
-1.002701e-02
5.160191e-03
-3.982214e-03
7.061200e-03
-8.642614e-03
-6.349984e-04
1.255365e-02
-2.210133e-03
-1.685192e-03
-7.333666e-04
-5.693414e-04
1.043481e-02
-7.590025e-03
-3.241465e-03
-7.778688e-03
1.164942e-02
-7.947654e-04
5.516928e-03
-1.296617e-02
-3.182923e-03
3.105121e-03
2.085935e-03
4.203437e-03
-7.975305e-03
3.492217e-03
1.163652e-02
-7.608100e-03
4.969363e-03
-2.234134e-03
-1.045103e-02
4.877049e-03
3.968316e-03
-5.154420e-03
6.202707e-03
-1.619829e-04
-2.933942e-03
-9.194333e-04
1.385417e-03
-2.024830e-03
4.056484e-03
-2.064439e-03
3.298893e-03
-1.337209e-02
1.655280e-03
6.601152e-03
1.046773e-02
-1.162440e-02
-5.477719e-03
1.136665e-02
-5.884715e-03
9.817036e-05
1.206310e-02
-4.431083e-04
-4.912763e-03
7.005832e-04
-5.480994e-03
7.301838e-04
-2.511077e-03
-1.013821e-02
2.535461e-03
-6.312992e-03
1.001808e-02
1.510992e-02
3.433414e-03
3.118300e-03
-1.674963e-02
-3.682000e-03
5.316881e-03
2.647425e-03
6.178161e-04
7.620991e-05
-1.135013e-02
6.765401e-03
4.106503e-03
-1.127312e-02
5.258822e-03
2.082580e-04
-8.827074e-03
6.596031e-03
7.879572e-03
1.005577e-02
-6.231814e-03
-6.365196e-03
3.243025e-03
3.890952e-03
-2.853195e-03
-1.544619e-02
-2.427776e-03
1.241066e-02
-7.435302e-04
8.998713e-04
2.631648e-03
1.001363e-03
-3.773625e-03
5.568819e-03
-1.082250e-02
4.095652e-04
5.557450e-03
1.599081e-03
-4.247433e-03
5.137414e-03
-7.817002e-03
1.104013e-02
2.899587e-03
-1.083323e-03
-3.907962e-03
-4.419038e-03
2.513458e-03
-1.560800e-02
-1.151932e-03
9.694964e-03
5.778342e-03
7.952381e-03
-4.927881e-03
-8.068893e-03
3.043984e-03
9.311838e-03
-3.453113e-03
-1.576106e-02
1.275058e-02
-4.998166e-04
5.339411e-03
5.039271e-03
-1.300874e-02
1.633436e-03
-1.755329e-03
-1.778347e-03
5.136638e-03
-1.295321e-02
9.666525e-03
-4.577714e-03
1.169276e-02
-5.466024e-03
-5.985603e-04
5.463051e-04
-3.021038e-04
2.609365e-03
-1.011614e-02
1.164471e-02
4.786069e-03
5.823936e-04
-1.028541e-02
7.401213e-03
-2.477703e-03
-6.643051e-03
-1.828836e-03
2.965261e-03
3.628616e-03
-5.251187e-03
-8.171491e-04
-2.339734e-03
-7.505722e-03
6.375141e-03
-5.627985e-03
1.618898e-02
1.088786e-02
2.629383e-03
1.158163e-03
-1.125112e-02
4.887220e-03
-8.795245e-03
-5.213324e-03
-4.444488e-03
4.476326e-03
-6.160337e-03
7.337676e-03
-5.296141e-03
-7.725368e-03
-4.534296e-03
1.005714e-02
1.313420e-02
2.708265e-03
6.412570e-03
3.863192e-03
-6.525455e-03
-1.397286e-03
3.737548e-03
-1.177438e-02
-1.200771e-02
8.491977e-04
-2.421095e-04
8.616176e-03
3.671589e-03
-3.924945e-03
-7.089966e-03
8.370471e-03
-3.127374e-03
5.373392e-03
1.056686e-02
-8.248213e-03
-5.161068e-03
-7.184464e-03
-4.390267e-03
8.561698e-03
1.031146e-02
7.040386e-03
-1.555127e-03
-1.594421e-03
-3.906627e-03
1.477627e-03
-7.424819e-03
-1.272446e-02
3.226631e-03
1.999110e-03
-2.191092e-03
6.091312e-03
-9.372901e-03
5.657102e-03
1.173994e-02
7.047123e-03
-5.636554e-04
-4.795159e-03
-6.715804e-03
6.372107e-03
-7.737302e-03
2.390975e-03
7.994083e-03
4.050217e-03
-1.613628e-02
3.786414e-03
-7.030531e-03
-2.788699e-03
8.058624e-03
-1.110091e-02
-3.198721e-03
1.269461e-02
2.517733e-04
2.544163e-03
1.404709e-02
-5.546862e-03
7.366987e-04
3.472561e-03
-8.963447e-04
-7.908368e-03
-8.766799e-04
-8.416381e-03
-2.445066e-03
-5.899400e-03
1.413664e-02
-5.725121e-03
-6.130890e-03
8.766638e-03
-4.920031e-03
4.692193e-03
1.980451e-02
-3.502464e-03
-1.899414e-03
-3.397567e-03
-1.976020e-03
-1.188501e-02
-4.468099e-03
-1.434897e-03
1.179563e-02
5.195003e-03
1.853769e-03
-8.477096e-03
-1.023283e-02
6.942865e-03
1.810363e-02
-8.733881e-03
-6.330346e-03
-3.873274e-03
7.502791e-03
-8.814353e-03
6.982000e-03
5.760790e-03
2.960368e-03
-6.522898e-03
-1.107925e-03
4.160341e-03
-1.022479e-02
-7.837980e-03
3.811321e-03
9.844285e-03
9.112414e-03
-4.659176e-03
-1.220909e-03
-1.902308e-03
-6.774439e-03
2.371480e-03
4.822967e-04
-4.644667e-03
1.452797e-02
2.387112e-03
-1.359045e-02
-3.256528e-03
1.134156e-03
-1.005891e-02
1.582978e-02
2.429880e-03
1.540711e-02
-8.118516e-03
9.063944e-04
-5.698207e-03
-1.746974e-02
7.292753e-03
-4.759104e-03
-1.456528e-03
1.174168e-02
-9.172833e-03
1.006780e-02
-1.867143e-03
5.468562e-03
1.001406e-03
2.879138e-03
-9.133662e-03
-5.024110e-03
1.832428e-03
1.216949e-02
-2.023703e-03
-1.462966e-04
-3.163014e-03
-6.704086e-03
-7.536257e-03
6.061282e-03
-3.672700e-03
-2.889507e-04
8.667230e-03
-3.179437e-03
2.537523e-03
-1.111107e-02
1.204715e-02
3.439155e-03
1.030147e-02
7.885787e-03
-7.002257e-04
-1.130077e-02
-1.982732e-02
4.210078e-03
7.127495e-04
-1.191033e-02
1.707676e-03
5.432932e-03
5.415978e-03
3.012772e-04
1.773635e-03
1.356834e-02
-5.172676e-03
-1.650113e-03
7.131364e-03
-7.980535e-03
-8.203357e-03
-7.548071e-04
8.058148e-03
-1.887354e-03
1.313488e-02
-1.051932e-02
-3.105664e-04
-1.107223e-02
4.955133e-03
-7.775323e-03
-1.460516e-03
1.116181e-02
-8.624695e-03
-6.617216e-04
1.134383e-02
2.619429e-03
1.546729e-03
6.809039e-03
-5.277703e-04
4.667731e-03
-5.050578e-03
-1.597118e-02
-1.170464e-03
1.215810e-03
-6.019014e-03
5.709506e-03
5.569120e-03
-1.181109e-03
-5.616848e-03
2.743109e-03
-1.575909e-03
4.412589e-03
-2.166613e-03
1.497098e-02
-7.653726e-03
-8.014327e-03
4.226464e-03
-1.848574e-03
8.682370e-04
9.822778e-03
-2.796865e-04
5.768812e-03
-7.130259e-03
-1.386895e-02
-1.676830e-02
1.146666e-02
7.173192e-03
1.164587e-03
3.491170e-03
-5.953103e-03
9.022023e-03
-1.094360e-04
-1.162838e-02
3.811347e-03
9.339100e-03
5.099576e-03
1.065833e-03
-2.674551e-03
4.569880e-03
-6.157226e-03
-6.205528e-03
-5.102011e-03
-5.783905e-03
6.135522e-03
-1.345576e-02
-3.587230e-03
7.542700e-03
1.062608e-02
5.668748e-03
1.017370e-02
5.750885e-05
-8.475174e-03
3.860583e-03
6.471264e-03
-8.084804e-03
-1.305660e-03
-9.279833e-03
2.697110e-03
4.115014e-03
-9.957346e-04
-9.933548e-03
-4.676246e-03
-7.677595e-03
-1.023534e-02
2.127416e-02
5.852402e-03
1.503223e-02
6.643317e-03
-4.775696e-03
4.671047e-03
9.268046e-03
-6.633221e-03
-2.319108e-02
-2.972280e-03
-3.645741e-03
-8.705763e-03
-2.628399e-03
-2.564635e-03
1.111978e-02
9.268837e-03
9.188585e-03
-6.279104e-03
8.082086e-03
4.428749e-03
-1.149031e-04
-1.759186e-03
-3.509468e-03
-1.098492e-02
2.215929e-03
-6.394158e-03
1.332935e-04
2.953433e-03
1.350315e-02
-5.755230e-03
-2.381238e-03
5.468581e-03
-1.279056e-02
-6.736707e-03
1.558692e-03
-4.562738e-03
1.303363e-02
9.569091e-03
4.900859e-03
9.546383e-03
-1.483069e-02
1.182351e-03
-4.716848e-03
-2.662074e-03
-7.519196e-03
7.184783e-04
1.046627e-02
-1.131303e-02
4.945078e-03
-3.650520e-03
1.617615e-02
-5.702452e-03
3.229378e-03
-1.016115e-02
-4.658511e-03
-7.697164e-03
7.131346e-03
8.961942e-03
3.627448e-03
-4.852882e-04
5.550022e-03
-2.780804e-03
7.662785e-03
-7.292759e-03
-4.956201e-03
3.855597e-03
-1.664384e-02
-5.381957e-04
-5.300415e-03
1.083811e-02
7.116469e-03
2.391266e-03
-1.520043e-03
-5.204841e-03
5.662980e-03
-7.588518e-03
1.295988e-03
1.215580e-02
4.359060e-04
-1.258667e-02
9.709126e-03
-3.853957e-03
8.055124e-03
-1.150398e-02
2.033941e-03
-6.120547e-03
3.668585e-03
-2.026262e-03
-9.931914e-03
7.266127e-03
6.266546e-03
-4.355779e-03
3.459090e-03
1.383020e-02
-8.763397e-03
-9.312597e-04
1.087867e-03
8.365655e-03
-1.587367e-02
-2.435838e-04
-6.830757e-04
-1.062143e-02
1.101918e-02
2.294814e-03
3.092305e-03
-4.790599e-03
1.648476e-02
-3.437357e-03
1.862018e-03
-9.723308e-03
-5.959135e-03
-4.911257e-04
-4.199047e-03
-3.540150e-03
-5.218943e-03
1.511416e-02
1.117179e-02
-8.516656e-03
4.898589e-03
4.098889e-03
-2.586396e-03
4.513897e-04
-6.326512e-03
7.763315e-03
-1.001814e-02
1.745637e-04
-1.550449e-02
8.462606e-03
2.405638e-04
8.038286e-03
7.613407e-03
5.140694e-04
-7.664271e-03
2.972033e-03
-1.293948e-02
7.178289e-03
5.321960e-03
-6.110885e-03
1.169858e-03
8.201192e-03
-3.690072e-03
-1.332786e-02
1.521563e-02
2.186111e-03
5.154469e-04
6.875267e-03
-1.792349e-02
-2.017203e-03
-1.107077e-04
-8.316607e-03
1.176960e-02
5.158146e-03
-9.824356e-03
7.380654e-03
1.810255e-03
1.167776e-03
-3.705117e-03
6.437135e-03
3.419674e-03
-1.403236e-03
-1.109903e-02
-2.644620e-03
-9.797628e-04
1.059298e-02
2.017824e-03
8.240694e-04
-1.893595e-02
1.016898e-03
6.727596e-03
6.979436e-03
6.496828e-03
-4.975328e-03
-1.016217e-02
9.953807e-04
1.085899e-02
-1.053503e-03
-6.560905e-03
2.565508e-04
7.804854e-03
-3.606823e-03
1.021849e-02
-1.310007e-02
-7.373193e-03
9.296757e-04
-1.077329e-02
1.144875e-02
8.021213e-03
-2.394174e-03
7.032515e-03
1.442892e-03
-2.470827e-03
-1.668522e-03
2.298002e-03
-5.586338e-03
6.879560e-03
-3.576993e-03
-1.242259e-02
3.359247e-03
-9.470916e-04
-8.928459e-03
9.153944e-03
4.805266e-03
-7.457574e-03
1.258215e-02
6.939830e-03
-6.440075e-03
1.856329e-03
9.285543e-03
-9.218485e-03
-5.636806e-03
-1.196572e-03
-1.017438e-03
-2.537099e-03
-4.771949e-03
6.501379e-03
-1.106488e-02
1.016909e-02
2.806977e-04
3.270075e-03
1.554234e-03
7.946596e-03
-1.485552e-02
6.317403e-03
-1.975339e-03
2.496122e-03
8.567451e-03
-6.585789e-03
-8.156208e-03
2.288277e-03
1.909108e-03
7.126052e-03
3.854969e-03
-7.280148e-03
-1.025636e-02
-1.643838e-03
2.637127e-03
5.588077e-03
-9.346607e-03
-7.476965e-03
3.763147e-03
1.038490e-02
8.775120e-03
7.341176e-03
-6.640822e-03
1.194557e-02
-8.540753e-03
5.895719e-03
-1.214359e-02
1.475735e-03
-6.704744e-03
-7.127396e-03
-1.368323e-02
7.867579e-03
5.152515e-04
6.229179e-04
-1.651557e-03
2.035229e-02
5.506946e-03
8.945151e-03
-5.390417e-03
-1.198468e-02
5.829668e-03
-3.595694e-03
-8.023776e-03
-1.273716e-03
-3.406467e-03
5.492421e-03
7.415709e-03
-1.771108e-04
-1.427465e-02
8.750961e-03
3.584136e-03
-1.108908e-03
-9.725031e-03
8.237553e-04
-1.465742e-03
5.873702e-03
-1.087364e-02
1.280291e-02
1.441585e-02
8.790019e-04
5.480838e-03
-4.512901e-03
-4.518670e-03
-2.442897e-02
-8.048647e-04
-2.176467e-04
1.341022e-02
1.530927e-03
-3.358919e-03
1.463184e-03
-6.412737e-03
1.282826e-02
-8.889489e-03
6.188689e-03
-7.648346e-03
9.377562e-03
3.260638e-03
1.778295e-03
-8.550842e-03
6.600049e-03
-2.684362e-03
-1.692903e-02
7.686236e-03
-1.672685e-03
6.594218e-03
8.672552e-03
-9.323724e-03
5.046250e-03
-2.175469e-03
-5.864881e-03
-1.253993e-03
-4.953329e-03
3.465847e-03
1.269839e-02
-9.286397e-03
7.671592e-04
5.402381e-03
1.249977e-02
-1.048745e-02
-6.329938e-03
6.011514e-03
-1.006290e-02
-7.189157e-03
1.059944e-02
-3.427819e-03
3.713602e-03
7.099430e-03
1.712287e-03
-5.129778e-04
-8.689116e-03
4.536392e-03
-1.243307e-02
5.495205e-03
2.949694e-03
-7.009571e-03
5.215051e-03
6.663792e-03
1.352099e-03
-3.268013e-03
4.767220e-03
-6.090494e-03
9.282109e-03
-8.088868e-03
-2.863239e-03
-3.778002e-04
-7.214542e-03
-3.329427e-03
5.104204e-03
8.927584e-03
9.260734e-03
-6.309050e-03
8.581922e-03
-1.395672e-02
-2.041500e-03
-3.567436e-03
-8.222179e-03
9.001792e-03
5.031621e-03
3.091847e-03
-4.439348e-03
5.927144e-03
6.569256e-03
-4.984601e-03
3.516285e-03
-1.163935e-02
4.072715e-03
7.829183e-04
-5.432648e-03
-3.811289e-03
-9.180871e-03
2.812972e-03
1.210244e-02
-4.769231e-03
4.601547e-03
1.699073e-02
1.325819e-03
-4.116743e-03
-1.092519e-02
-3.817190e-03
1.937036e-03
-1.196335e-02
-5.120580e-03
-1.303721e-03
2.593586e-02
3.953299e-03
3.252835e-03
-8.669205e-03
4.753260e-04
-1.749367e-02
5.762472e-03
-4.509782e-03
5.104462e-03
5.525799e-03
-1.929964e-03
-4.781608e-03
4.530184e-03
6.642540e-03
9.538458e-03
-1.409920e-02
-1.721810e-03
-4.593536e-04
6.681928e-03
-3.088516e-03
-1.448563e-02
1.029743e-02
-7.819919e-04
-1.201795e-03
1.458814e-03
6.731303e-03
-5.088306e-03
-1.383549e-03
1.049569e-02
-6.556354e-03
-6.019478e-03
5.255704e-03
-2.866741e-03
-1.284020e-02
1.468863e-02
-9.467355e-04
1.323172e-02
-7.361073e-03
5.125759e-03
-3.026760e-03
-7.712535e-03
-3.412217e-03
-2.098382e-03
4.508642e-03
-1.471064e-02
-1.865878e-04
1.035163e-02
7.203439e-03
1.220263e-02
-8.208510e-03
1.494495e-04
4.401332e-03
3.833870e-03
-1.708080e-02
3.998371e-03
-5.619000e-03
-1.056821e-03
1.050385e-02
-9.626877e-03
-3.751030e-03
9.452733e-03
1.476022e-03
-1.096326e-02
1.301664e-02
-4.422961e-03
3.914136e-03
-4.737445e-03
-5.155379e-04
2.745319e-03
2.192132e-04
7.916152e-03
-4.991525e-03
-4.331168e-03
4.087558e-03
-1.147353e-03
-7.075131e-04
-8.056260e-03
-9.382474e-03
8.439732e-03
1.839674e-02
-5.934631e-03
-6.000314e-03
-2.195624e-03
-8.446843e-03
1.327337e-02
-3.804002e-03
-2.992795e-03
1.061450e-02
-8.997759e-03
8.395460e-03
6.478531e-03
-8.045865e-03
9.501945e-03
-8.265055e-03
-8.705473e-03
-7.552262e-04
-9.921350e-03
1.085270e-03
1.553216e-02
-5.935237e-03
1.375150e-04
4.286286e-03
1.460184e-03
-2.283347e-03
3.895430e-03
-6.530463e-03
6.450087e-03
4.551265e-03
7.532716e-04
-2.048565e-03
-4.114716e-03
-1.995304e-03
-8.789955e-03
2.699534e-03
8.734453e-04
4.279324e-03
-6.697137e-03
-4.792623e-03
9.750128e-03
6.335959e-03
4.637285e-03
-9.637013e-03
-6.013732e-03
6.844820e-03
2.080441e-03
1.569770e-02
-9.480791e-03
-9.810779e-03
-2.444754e-05
-6.339110e-03
-2.655610e-03
4.647540e-03
8.735022e-03
-4.522705e-03
7.605346e-03
-4.930380e-03
-4.398095e-03
-3.680269e-03
9.898261e-03
9.505783e-03
-5.846180e-03
-1.199944e-02
1.143704e-03
-1.265194e-02
8.320623e-03
7.435529e-03
5.670264e-03
-4.378740e-03
1.294885e-02
1.343824e-03
-5.594680e-03
-7.074634e-03
2.018304e-04
4.378155e-03
-9.488170e-03
-2.047198e-02
7.186438e-03
4.586692e-03
1.183328e-03
5.704013e-03
4.649456e-03
6.777115e-03
1.667171e-02
-9.137566e-03
2.591548e-04
-7.025704e-03
4.859735e-03
-1.629867e-02
-5.748519e-04
-1.201393e-02
2.410634e-03
1.363522e-03
-6.094296e-03
1.613424e-02
8.686285e-03
4.455026e-03
-5.755732e-03
7.972717e-03
2.488097e-03
-1.743373e-02
1.212373e-03
5.010209e-04
-1.027849e-02
1.099512e-02
2.819387e-03
-5.364750e-04
-5.796481e-03
5.738318e-03
1.885938e-03
2.295475e-03
-1.443197e-02
-2.540614e-03
6.068027e-03
1.822082e-03
5.575277e-03
-8.084602e-03
-2.443328e-04
5.408152e-03
3.955361e-03
1.215773e-02
-9.051001e-03
5.518047e-03
-1.218314e-02
2.165084e-03
-2.521066e-03
-5.953886e-03
-3.330697e-03
1.159298e-03
-5.438669e-03
3.933940e-03
5.041544e-03
2.876927e-04
9.992192e-03
-1.610725e-03
8.318407e-03
8.427810e-03
-5.442839e-03
-6.715111e-03
-1.707405e-02
-1.009448e-02
5.700231e-03
4.113828e-03
1.114787e-02
4.186409e-03
3.555854e-04
-1.101392e-02
-3.567778e-03
8.771163e-03
5.692098e-03
-3.867867e-03
-8.934197e-03
-3.175649e-03
2.425660e-03
2.970902e-03
9.793495e-03
2.032298e-03
9.966652e-03
-3.282852e-03
-1.824500e-02
5.053077e-04
-8.987873e-03
1.076462e-02
-7.261477e-03
5.922109e-03
-1.585695e-03
-1.635654e-04
-5.940131e-03
1.662122e-02
-4.527762e-03
5.125064e-03
-3.087214e-03
-9.227977e-04
-3.213351e-03
4.687939e-03
8.216544e-03
-1.488478e-02
-8.379558e-03
1.131029e-03
5.110929e-03
3.217401e-03
8.352253e-03
-5.109945e-03
6.277961e-04
2.267747e-03
-2.645284e-03
-5.592020e-03
-4.942868e-03
-5.315763e-04
1.346980e-03
4.242044e-03
1.899391e-03
8.352892e-03
-2.933727e-03
-6.199454e-03
1.288359e-02
-1.182590e-03
3.115500e-04
-9.604103e-03
-1.589892e-03
6.459287e-03
-7.596117e-03
-1.220296e-02
-6.895359e-04
6.068923e-03
1.778291e-03
4.055717e-03
-3.277458e-03
-1.137628e-03
1.131572e-02
2.101876e-02
-5.389096e-03
-2.823113e-03
-7.330985e-03
-8.903250e-03
2.640554e-04
-7.518543e-03
-1.055205e-02
1.272502e-02
-4.076730e-03
-2.634890e-03
5.691898e-03
-3.894202e-03
2.404341e-03
1.449202e-02
2.888532e-03
2.476662e-03
7.057385e-03
-1.063802e-02
-6.454333e-03
-4.016046e-03
-3.121914e-03
-1.461256e-03
-2.058758e-03
8.813434e-03
-5.402477e-03
1.057647e-03
6.023808e-03
-1.668799e-03
2.362410e-04
-9.152043e-03
-3.141511e-03
8.743118e-03
7.908401e-03
2.778500e-03
6.678452e-03
-9.045306e-03
-9.469347e-03
6.215569e-05
8.586678e-03
-9.587223e-06
-5.761026e-04
1.378341e-03
-1.065228e-02
-1.754312e-02
1.239238e-02
8.817837e-03
4.657429e-03
-4.516824e-03
2.061558e-03
7.614315e-03
-7.960380e-03
-4.589803e-03
-1.728651e-03
1.277764e-02
8.053723e-03
-3.985291e-03
-1.236792e-02
-1.212434e-03
-3.203772e-03
-2.087202e-03
7.114846e-03
4.578110e-03
1.646358e-03
-1.317307e-02
-8.788981e-03
7.506907e-03
6.234470e-03
9.663340e-03
1.105711e-02
-1.619022e-02
-7.279915e-03
3.952687e-03
3.379775e-03
9.518901e-03
-1.040776e-02
5.220137e-03
-7.577930e-03
4.422438e-03
-4.550892e-03
-6.843655e-03
-3.336709e-03
5.374087e-03
9.360843e-03
-8.251547e-03
3.567265e-03
-5.324644e-04
1.367257e-03
6.547048e-03
1.963582e-04
5.935794e-03
-9.451093e-03
-4.401480e-03
6.602217e-03
-4.174022e-03
-1.005081e-03
-2.092850e-03
4.359951e-03
8.055790e-03
-1.961799e-02
-9.862864e-03
3.386114e-03
6.859754e-03
1.690493e-02
-2.374429e-03
1.157953e-02
-2.924010e-03
-3.048216e-03
2.939081e-03
-1.993891e-02
-8.332043e-03
3.239543e-03
3.931251e-03
-6.692673e-04
6.967108e-03
6.336653e-03
4.279043e-04
-5.269491e-03
6.481445e-03
-1.062016e-02
8.878256e-03
3.108304e-03
-3.349564e-03
-1.801049e-03
-1.141975e-02
5.819877e-03
-3.765438e-03
-3.385352e-03
-5.216542e-03
1.691211e-02
1.154273e-03
7.266293e-03
-6.230750e-03
-3.843539e-03
3.618495e-03
-3.389657e-03
1.159330e-02
-5.023907e-03
-8.489018e-03
4.151993e-03
-1.429162e-02
6.561885e-03
6.472199e-04
-3.949883e-03
8.827669e-03
-7.605874e-03
-1.519175e-03
1.920590e-03
1.387392e-02
-5.588613e-03
1.304191e-02
-1.683189e-03
2.175006e-03
-5.886141e-03
-9.271964e-03
-1.135796e-02
4.195718e-04
-3.038911e-03
2.447775e-03
1.022011e-02
5.430120e-03
3.229862e-03
-3.160267e-03
-1.982438e-03
-9.856016e-03
8.131527e-03
-2.653662e-03
8.787122e-03
3.874387e-03
-1.064814e-02
7.472135e-04
-5.742726e-03
-5.864197e-03
1.468320e-03
9.692086e-03
6.588581e-03
3.088697e-03
9.699537e-03
-1.569398e-02
-9.068619e-03
-1.607386e-03
-4.115196e-04
-2.478203e-03
5.705221e-03
-1.781199e-03
8.596382e-04
6.171079e-03
5.589516e-03
3.836003e-03
-1.112030e-02
7.222502e-03
-8.187975e-03
-3.348844e-03
9.077384e-03
8.103088e-04
-1.082567e-02
9.842739e-03
7.099477e-04
-5.420501e-03
-8.547371e-03
8.399449e-03
-3.336352e-03
8.566084e-04
1.128812e-02
-1.049561e-02
-2.769190e-03
2.377851e-03
5.303195e-04
-2.055335e-03
-3.487585e-03
9.949123e-03
-1.911545e-03
8.519918e-03
7.778747e-03
8.741339e-03
-1.621511e-02
-4.462537e-03
-1.234113e-02
6.619805e-05
-5.490254e-03
-6.703482e-03
-1.278143e-03
4.666987e-03
8.236253e-03
9.087588e-03
1.104761e-02
-1.046852e-03
1.285151e-02
-1.081117e-03
-9.493066e-03
-5.176860e-03
-9.881036e-03
-1.074339e-04
-5.909972e-03
-7.889878e-04
-1.724266e-02
6.330793e-03
1.369593e-02
4.048871e-03
1.211280e-02
-2.667916e-03
2.090257e-03
-2.299017e-03
-1.033530e-02
7.512652e-03
2.860768e-03
-7.235684e-03
5.817114e-03
-3.596865e-03
-1.003825e-02
3.460782e-04
2.626640e-03
-1.871709e-03
5.509973e-03
-5.731026e-03
8.124398e-03
6.845743e-03
1.748829e-03
-2.778145e-03
-2.561377e-03
-1.289877e-02
5.951755e-03
1.183157e-03
-1.056343e-02
1.135566e-02
5.942152e-03
-5.362727e-03
-1.721501e-03
7.163266e-03
-3.764862e-03
-1.433593e-02
1.215310e-02
6.277219e-03
2.659783e-03
-6.595168e-03
4.156031e-03
-2.769583e-03
-1.619987e-03
-8.809654e-03
-1.021696e-02
1.004315e-02
9.631878e-03
6.427751e-03
-7.011166e-03
-1.466982e-02
1.301947e-02
8.690312e-03
-5.590265e-03
4.944915e-03
-9.569222e-03
4.147565e-03
-8.073990e-03
5.943770e-03
-7.642811e-03
2.974640e-03
7.644589e-03
2.343454e-05
5.115123e-03
-1.186403e-02
-2.225861e-03
1.153776e-02
-2.781057e-03
-7.209667e-03
-2.422839e-03
1.095865e-03
2.017506e-03
-2.560612e-03
1.790919e-04
2.484895e-03
1.094492e-02
-7.824278e-03
3.912178e-03
8.130714e-03
6.132115e-03
-8.594526e-03
-1.066857e-02
-5.829275e-05
-4.929211e-03
-1.055373e-02
3.710831e-03
1.379607e-02
-6.030815e-03
-8.995080e-03
7.078158e-03
5.775630e-03
5.006875e-03
3.014810e-03
5.249415e-03
-2.125799e-04
-5.943852e-03
4.126868e-03
8.379254e-03
-9.761708e-03
-2.035830e-02
-4.102524e-03
1.249365e-02
-1.015010e-02
8.917194e-04
4.128688e-05
1.237245e-03
1.244749e-02
-7.112692e-03
1.159310e-02
2.923155e-03
8.156230e-03
3.764775e-03
-9.982415e-03
2.293975e-03
-9.681728e-03
-9.933673e-04
-1.676342e-02
-2.897186e-03
3.379576e-03
8.443239e-03
-5.694094e-03
1.722052e-03
7.465668e-03
6.880786e-03
4.221592e-03
2.381816e-03
1.130258e-03
-6.625098e-04
-2.694979e-03
-7.598706e-03
-1.464462e-03
-7.656127e-03
-1.407315e-02
1.217850e-02
5.544325e-03
2.135974e-03
-4.921800e-03
1.488296e-02
4.158212e-04
4.080395e-03
-1.530029e-03
-8.851894e-03
-9.438940e-04
4.275511e-04
-6.702799e-03
-6.030293e-03
-3.621754e-03
2.751029e-03
3.055154e-04
2.273211e-02
-3.952590e-04
-3.748360e-03
6.378062e-04
-9.744055e-03
4.501306e-03
-9.775757e-05
3.157310e-03
-5.651709e-03
9.056726e-03
-6.423410e-03
-1.059042e-02
-1.088420e-02
5.931354e-03
1.63