1.446441e-09
1.615727e-09
2.292820e-06
2.131741e-05
7.001171e-06
5.171176e-05
5.594849e-05
1.394453e-05
5.207398e-06
1.148971e-04
1.580261e-05
3.055829e-07
1.050752e-04
2.058731e-04
2.316473e-04
8.867398e-05
8.252774e-07
2.856264e-05
7.156826e-07
3.152498e-06
9.272935e-06
5.087814e-06
1.141054e-07
4.216566e-05
1.302614e-06
1.348041e-04
3.618743e-06
3.725555e-04
1.784906e-05
2.405126e-08
2.796812e-05
7.017354e-08
1.032020e-04
3.126853e-05
6.075017e-06
7.215789e-06
5.626453e-05
2.263195e-05
4.312512e-05
6.220316e-05
9.081115e-05
1.231867e-04
2.507314e-04
1.648794e-06
3.603911e-05
2.106273e-06
6.233910e-05
2.146085e-05
1.020871e-05
3.225654e-08
8.708058e-05
6.208493e-06
2.617151e-06
9.552559e-05
2.451168e-06
1.121198e-06
1.501241e-04
2.296690e-05
1.134461e-04
3.247207e-05
1.184273e-04
1.012631e-05
3.836133e-04
4.312143e-06
2.720111e-05
5.675062e-06
1.897930e-04
1.441716e-04
9.752098e-06
1.284331e-04
5.947471e-05
2.341427e-05
1.239208e-08
1.167546e-04
3.054217e-06
7.370620e-05
1.769051e-04
4.559661e-07
1.324592e-05
8.578353e-05
1.047527e-04
7.225654e-06
5.881697e-06
2.186925e-05
1.900726e-05
1.222891e-05
3.472206e-07
2.028095e-05
3.905114e-06
2.539059e-05
7.203077e-05
2.774258e-04
2.349456e-04
2.072073e-05
4.302449e-05
6.896881e-06
5.304335e-05
3.983056e-07
1.719650e-04
4.015401e-05
5.748302e-05
2.137694e-08
3.424586e-05
8.282610e-07
4.484935e-06
3.300581e-04
3.954636e-05
1.956890e-05
8.439345e-05
5.054458e-07
2.099159e-04
1.792578e-05
9.874275e-06
1.013636e-04
1.963184e-05
4.161131e-05
1.030184e-04
1.518322e-05
1.616699e-05
5.522384e-05
7.435008e-05
3.464215e-07
5.286225e-05
7.663586e-08
4.176821e-05
2.995473e-06
3.758884e-05
1.639994e-05
2.090675e-06
1.868858e-05
2.911990e-05
4.361331e-05
3.433018e-04
2.163577e-06
4.259871e-05
1.187404e-04
1.570171e-05
1.166407e-05
3.679386e-07
1.112010e-04
1.710891e-06
1.049368e-04
3.241361e-07
2.363637e-04
4.163546e-05
1.490697e-05
1.140730e-04
8.158870e-05
1.160369e-05
6.023228e-06
6.307513e-05
1.692753e-04
7.092932e-06
2.448945e-06
6.420887e-06
1.118812e-05
1.633018e-05
1.060447e-04
8.313221e-06
1.934712e-05
2.939896e-05
5.226404e-06
3.573092e-07
1.100138e-05
4.630805e-05
3.547961e-05
5.107989e-07
8.626907e-05
4.535954e-05
1.491480e-05
1.458962e-04
9.750941e-07
6.249978e-05
3.314406e-05
3.251408e-04
3.178373e-06
2.034496e-05
9.070717e-05
4.819834e-08
3.191897e-05
9.886297e-05
4.311160e-05
3.034547e-05
3.572791e-04
3.627332e-06
3.429685e-06
9.543726e-05
8.153717e-07
2.822006e-05
2.213437e-06
2.639548e-05
2.895964e-06
2.330428e-05
3.708014e-05
1.286484e-04
1.293362e-04
2.054830e-08
1.521942e-05
5.431293e-06
4.408883e-05
7.377963e-05
1.245515e-05
7.915472e-06
2.763330e-05
1.852375e-04
9.484886e-07
1.693881e-05
8.165199e-05
9.732187e-06
4.111002e-06
3.210866e-05
5.054193e-05
1.780573e-06
8.109289e-06
4.223753e-06
9.742650e-05
1.514048e-04
1.456365e-05
1.101975e-07
2.403265e-06
2.899638e-06
1.151165e-04
4.034711e-05
1.820548e-05
4.423321e-05
1.393234e-04
2.544503e-05
3.466534e-06
2.910490e-06
2.808024e-04
7.646016e-05
3.733394e-06
2.457470e-04
1.018036e-04
8.135929e-05
2.569746e-04
4.286945e-05
1.679146e-05
1.783821e-04
5.545545e-05
7.299973e-06
2.247893e-05
2.281625e-05
2.108800e-05
2.333412e-06
2.411374e-04
4.175241e-05
4.569402e-05
3.333002e-05
8.741038e-06
9.689413e-05
8.310975e-06
2.367116e-07
2.086090e-05
9.869495e-05
1.580015e-04
8.762718e-07
1.795733e-05
2.241313e-05
9.161301e-05
5.482152e-05
9.821219e-06
2.344835e-04
4.272586e-04
2.424013e-06
3.257667e-05
4.343713e-06
1.076686e-05
3.155521e-06
8.667968e-05
8.337428e-06
9.372799e-05
1.486161e-04
1.068877e-08
2.739869e-06
1.497487e-04
1.039216e-04
3.860343e-05
1.046677e-04
1.767474e-05
6.550210e-05
2.827223e-06
2.710353e-04
5.681464e-05
2.758288e-05
5.323372e-06
1.336376e-05
2.750276e-06
3.922945e-05
9.561834e-05
4.365374e-05
1.099856e-06
1.793768e-06
3.493517e-05
8.388217e-05
8.202202e-06
4.694733e-05
1.726395e-04
3.649654e-05
4.415113e-06
9.768626e-06
7.666255e-06
9.437475e-05
8.655353e-05
6.725999e-06
6.200804e-06
2.010510e-04
2.152638e-05
4.725958e-06
7.653717e-05
1.606538e-04
2.205803e-05
6.877986e-08
7.474121e-05
1.074078e-05
1.204969e-07
6.347362e-05
1.388379e-04
2.153525e-05
3.719704e-04
1.206865e-05
3.162460e-09
9.402858e-05
2.728531e-07
8.835002e-05
1.174113e-05
1.640616e-06
1.747596e-04
5.929912e-06
1.487375e-05
2.765452e-06
1.799216e-06
4.670360e-05
3.977038e-05
4.640857e-05
6.793511e-05
2.244482e-05
5.804360e-06
2.112168e-05
1.180235e-04
4.043847e-05
3.354457e-04
1.285405e-08
4.653067e-05
1.395048e-05
5.967143e-06
1.344749e-05
5.283010e-06
5.825393e-05
1.820269e-05
1.018127e-04
2.532516e-05
3.019692e-04
1.547118e-04
7.157741e-06
5.659676e-05
6.145744e-06
3.269942e-05
3.006890e-04
1.303460e-06
2.723973e-06
8.156028e-05
7.580332e-05
6.051840e-06
2.689115e-06
6.284987e-05
1.801129e-05
7.512045e-05
4.026675e-06
5.034530e-05
1.100449e-08
3.283209e-05
3.673931e-05
2.518978e-05
1.160380e-05
1.624497e-04
8.766229e-06
7.051183e-07
4.065451e-05
1.456696e-04
3.050502e-09
1.608326e-04
1.945803e-05
1.886273e-05
1.211943e-05
1.161137e-06
1.334839e-05
5.854692e-06
3.002617e-05
2.215699e-04
1.014652e-04
7.805020e-05
1.762694e-05
1.585166e-04
8.104399e-05
1.194162e-05
1.776552e-04
2.096743e-05
1.192161e-06
4.157380e-05
5.934142e-06
3.302248e-07
3.618021e-05
3.336712e-05
3.235081e-05
2.203087e-05
3.075267e-04
6.718033e-06
1.907159e-05
7.150207e-05
1.086487e-04
3.191008e-05
6.228070e-06
3.776101e-05
3.768133e-05
5.185837e-05
3.548286e-06
6.813435e-06
1.156825e-06
1.294312e-05
1.688796e-05
1.287942e-04
1.143820e-06
1.199015e-04
4.454691e-06
2.170787e-04
2.518758e-09
3.686701e-05
1.824923e-07
9.705142e-05
1.360708e-05
8.579616e-05
1.481652e-04
4.603394e-07
1.765603e-06
4.717615e-04
5.301645e-05
1.544209e-06
4.704302e-05
7.976351e-05
8.742786e-05
1.128856e-05
7.976596e-07
6.927810e-08
2.122198e-08
3.536449e-07
5.203839e-05
2.100628e-06
5.746419e-05
3.929879e-06
2.020135e-05
3.775704e-05
3.474865e-04
1.144915e-07
8.756718e-05
7.976901e-06
8.002426e-05
1.263662e-04
1.179518e-04
6.598479e-06
1.130459e-04
1.439069e-07
6.846264e-06
5.366884e-05
5.137718e-05
4.856079e-08
4.445981e-06
1.838078e-04
1.025545e-04
7.933613e-05
1.217668e-06
3.633759e-05
3.457697e-06
1.028938e-05
4.602976e-05
2.443637e-06
1.544893e-04
9.784504e-06
8.569141e-05
1.272424e-06
1.034128e-04
8.570140e-06
1.081073e-04
1.280916e-05
1.338042e-05
2.539147e-05
8.479065e-05
8.490899e-06
3.337360e-04
2.795835e-05
8.628679e-05
4.303542e-06
1.185465e-05
2.854909e-05
3.233358e-05
5.730417e-06
3.601245e-06
5.156423e-05
8.816484e-05
1.207894e-05
6.613734e-05
1.434237e-04
5.489661e-05
4.272891e-05
9.279108e-07
7.997490e-05
5.735221e-05
5.430244e-05
8.394957e-05
4.648624e-06
7.539630e-05
3.958102e-05
8.414137e-05
8.026519e-07
2.015759e-04
4.324850e-05
6.662790e-06
1.305595e-04
1.007855e-05
1.448104e-04
1.153943e-05
2.059712e-04
1.071147e-05
7.367689e-07
2.838397e-05
2.010557e-06
1.147979e-05
1.792534e-04
1.633715e-06
7.083128e-05
2.214737e-05
4.175372e-05
2.404004e-08
1.161964e-06
2.344624e-06
6.499164e-06
3.177439e-05
3.022922e-05
2.609525e-04
1.190621e-04
1.151545e-04
3.060159e-05
8.294705e-05
3.349834e-06
1.718601e-04
3.350572e-06
6.173648e-06
2.527828e-05
1.253404e-06
7.204915e-05
6.231997e-05
8.613820e-07
3.393727e-05
5.414047e-06
6.905844e-05
2.012407e-05
3.243106e-06
1.947935e-05
9.516678e-09
8.945008e-05
1.844391e-06
2.974545e-04
8.903333e-05
1.351903e-04
1.120363e-04
3.107219e-06
8.180211e-06
1.457317e-05
4.824972e-07
6.042412e-05
1.892300e-06
8.838879e-06
2.729951e-05
1.526524e-05
9.868872e-06
2.487271e-05
2.674520e-04
9.875980e-06
2.369724e-06
2.708138e-04
1.525205e-05
3.571434e-06
2.559035e-05
9.740296e-07
2.460380e-04
7.686894e-06
3.087287e-04
1.180623e-07
2.541435e-05
4.108172e-05
7.554020e-06
8.136562e-06
2.917212e-04
3.187453e-05
4.385038e-05
5.957647e-05
1.342939e-06
1.515297e-04
7.964783e-05
9.410960e-06
2.056064e-06
4.791431e-06
1.192828e-08
5.218793e-05
1.012173e-04
6.599353e-06
3.164102e-05
3.572865e-05
7.776646e-06
3.974023e-06
1.211949e-04
8.161352e-07
2.500222e-05
3.459784e-06
8.941397e-06
4.109189e-05
2.934259e-08
6.712229e-06
2.987851e-05
8.469512e-06
7.131058e-06
8.129826e-05
7.725414e-05
8.238027e-06
1.193533e-04
1.350138e-04
5.609614e-06
7.299384e-06
1.011743e-06
8.633909e-06
3.020545e-05
1.086776e-06
1.691115e-06
2.521148e-05
1.051361e-04
2.857407e-06
1.345931e-07
5.530991e-07
6.179045e-07
2.735264e-06
1.186441e-06
6.894367e-05
4.831547e-05
2.851115e-06
1.098376e-05
9.120574e-06
2.184954e-04
1.489105e-05
1.618787e-04
2.579353e-05
6.789772e-05
1.448112e-04
4.167674e-06
7.219441e-06
1.306666e-04
8.437409e-05
3.520563e-07
1.788288e-05
5.366763e-06
1.001759e-06
2.565589e-05
1.160401e-04
3.248032e-04
2.524500e-07
9.430559e-05
7.691317e-05
9.712217e-06
8.135624e-05
5.286364e-05
5.433572e-05
5.301930e-05
1.165239e-07
2.105306e-06
7.953484e-06
1.708276e-04
5.204050e-05
2.341178e-04
2.737467e-06
1.285885e-05
2.605158e-06
5.945726e-05
1.686979e-04
1.034280e-05
2.504465e-05
4.401626e-05
1.570215e-04
4.815445e-05
8.055339e-06
8.354637e-07
6.696247e-06
3.060910e-05
1.714655e-07
8.063504e-05
1.570933e-04
8.888520e-06
1.036770e-05
2.175246e-04
8.711035e-05
2.950509e-06
3.493752e-05
6.097054e-05
2.524664e-05
7.893406e-07
1.611629e-04
7.346521e-05
4.353542e-05
7.720532e-06
1.080435e-05
3.020713e-05
6.351037e-05
3.772823e-05
8.964896e-05
1.045524e-04
2.920474e-05
3.490364e-04
3.819958e-05
1.667234e-05
1.874774e-05
1.387010e-05
6.835276e-07
9.363412e-06
3.138611e-06
1.291264e-04
6.207958e-05
3.555706e-07
3.148533e-06
2.920774e-05
8.532240e-07
5.322001e-05
4.848956e-06
2.841737e-06
3.739781e-04
2.203415e-05
2.312688e-04
1.991043e-05
6.698417e-06
2.358639e-05
1.440290e-04
5.280684e-06
2.304452e-04
2.901242e-05
9.059000e-06
9.653984e-05
6.295507e-05
2.414900e-07
4.657602e-05
2.174189e-05
2.648664e-07
6.253608e-06
1.205860e-05
8.438173e-05
1.999548e-05
1.162793e-05
2.694834e-05
7.085545e-05
3.887147e-08
6.929809e-06
4.008844e-07
2.145531e-04
5.355343e-07
2.808025e-04
1.299978e-05
7.716116e-05
1.844071e-06
3.357861e-05
1.106084e-04
6.100192e-06
9.228987e-06
5.739701e-06
5.458091e-06
4.028168e-05
4.698364e-05
1.149766e-05
6.455684e-05
1.272566e-04
6.434209e-05
1.335791e-04
1.345629e-08
8.510968e-06
1.937644e-04
4.353897e-06
2.820308e-04
1.654575e-05
3.076435e-05
3.848403e-05
7.841284e-06
2.514946e-05
3.330494e-05
1.530710e-07
1.382488e-06
4.122548e-04
1.026912e-04
1.047856e-05
1.455686e-05
3.765288e-07
1.061355e-05
5.832824e-05
3.900995e-06
2.353435e-05
7.588754e-05
4.660891e-05
3.084598e-07
5.476822e-05
3.039851e-05
1.322910e-04
6.067674e-05
4.051870e-06
3.869931e-06
3.297772e-05
2.301861e-05
1.745894e-05
6.556751e-06
2.249826e-05
1.254707e-06
5.478173e-07
1.469396e-04
4.065277e-05
1.339826e-06
4.652386e-05
6.336756e-05
4.862810e-05
3.496705e-05
4.637254e-06
3.121354e-05
2.650579e-04
4.538609e-05
1.409502e-04
2.307707e-05
1.805251e-04
1.154565e-06
1.596628e-06
1.223001e-04
1.381875e-04
1.110110e-05
3.320288e-06
6.494615e-06
8.832734e-06
8.133259e-06
8.944139e-08
1.941314e-04
5.702236e-07
8.597324e-06
1.065883e-04
1.047838e-04
1.374732e-04
4.044052e-05
4.044476e-05
2.043061e-05
1.970496e-04
2.189535e-05
2.237373e-04
2.038100e-06
3.980120e-05
8.996365e-05
1.883103e-06
3.490805e-05
1.521409e-04
1.287511e-05
1.220324e-04
6.731165e-05
4.839312e-05
1.494450e-05
1.399101e-04
6.510298e-05
3.932518e-05
9.496638e-06
2.082386e-05
6.234490e-07
2.488009e-05
6.617919e-05
4.222749e-05
1.447350e-05
1.094679e-04
2.493463e-05
2.045407e-06
1.161128e-05
1.176154e-05
2.023073e-07
2.537620e-06
2.461819e-04
1.837899e-04
6.136103e-06
2.194239e-05
1.184660e-04
1.280515e-04
6.887077e-05
5.499849e-05
1.052686e-07
9.585762e-05
3.548371e-04
8.259436e-05
4.106997e-05
1.012729e-05
2.783511e-05
7.866700e-06
7.970216e-05
1.118467e-04
7.747477e-05
6.556622e-05
1.884065e-06
4.513237e-07
1.484735e-04
4.527636e-06
7.640859e-05
5.990473e-05
8.718910e-05
2.099694e-04
6.137181e-05
6.060043e-05
3.283612e-06
1.051020e-05
1.765258e-06
1.671461e-05
2.587379e-05
1.215455e-05
1.146972e-05
2.289314e-04
1.911010e-05
2.765855e-04
9.396394e-06
1.496181e-04
4.035795e-05
4.851234e-05
2.979920e-05
3.978398e-05
6.244252e-05
3.270865e-06
3.666534e-05
2.638438e-06
1.853803e-04
1.133661e-04
4.372629e-05
1.368726e-05
4.949306e-05
1.000230e-04
5.034764e-06
3.135660e-05
1.150603e-04
1.593887e-04
7.460178e-07
1.049907e-05
2.697857e-06
2.970276e-06
6.914033e-07
1.466926e-05
7.192723e-05
1.380766e-05
7.930294e-05
6.115579e-05
2.920635e-04
9.365247e-06
7.440392e-05
1.508133e-04
2.831896e-06
8.049315e-07
3.685218e-05
4.890421e-05
1.392343e-05
1.237846e-04
1.222795e-07
1.828807e-05
2.118487e-04
5.836663e-05
1.276434e-05
8.692837e-05
5.945717e-06
3.137160e-05
2.648074e-05
1.493122e-04
1.267702e-04
3.681724e-04
5.908502e-10
4.179815e-05
1.127910e-04
8.696682e-05
8.377004e-06
1.529588e-06
3.014157e-05
1.342185e-04
4.503602e-09
2.206686e-04
8.824821e-05
8.157605e-06
1.218745e-04
2.889566e-06
7.279734e-06
1.843199e-05
2.951919e-08
9.388777e-05
1.658941e-05
1.509188e-05
3.857123e-05
1.149132e-04
1.539582e-04
2.739820e-06
1.949699e-05
1.639326e-04
7.294016e-05
1.083642e-05
1.275267e-05
1.763400e-07
1.504515e-06
3.129701e-07
2.088877e-05
2.444634e-05
8.585384e-07
1.131284e-06
1.965106e-05
7.447841e-07
3.640944e-05
1.915203e-04
1.364211e-06
1.592509e-05
2.946458e-06
7.878539e-05
1.232307e-04
3.633653e-04
1.675480e-04
2.026077e-05
4.350701e-05
1.537321e-04
6.877023e-05
3.059352e-05
1.798384e-05
2.763235e-06
3.010331e-05
5.620486e-05
5.492380e-06
7.265169e-06
9.796915e-06
4.699407e-07
2.122713e-05
2.805034e-05
3.574322e-06
1.477680e-07
5.550338e-07
2.244148e-04
3.834446e-05
1.018088e-05
1.232247e-04
9.922567e-05
6.238320e-05
2.304391e-05
3.409609e-06
5.230487e-08
6.221045e-06
9.234317e-05
2.021684e-05
7.136162e-06
3.659183e-05
1.361297e-04
3.050885e-04
4.127362e-06
3.458825e-05
2.998743e-04
1.728076e-05
1.881903e-05
1.312493e-04
2.486472e-04
2.390463e-07
1.183163e-04
8.055709e-10
9.394000e-06
6.085083e-06
6.404330e-05
6.649781e-06
1.244524e-07
1.620682e-04
5.455727e-05
2.216269e-05
1.556958e-04
3.594260e-05
1.970834e-05
1.012097e-07
9.055917e-06
9.894852e-06
2.784322e-04
1.208726e-04
1.332297e-05
7.118357e-05
1.125442e-05
3.256369e-05
2.557001e-04
6.332471e-06
7.276380e-06
2.523568e-05
7.276747e-07
3.436475e-06
2.280303e-07
1.226435e-04
3.078439e-05
1.299778e-04
1.867122e-05
2.322545e-07
1.045963e-04
1.539034e-10
1.654862e-04
7.293066e-05
6.644094e-06
1.928221e-04
2.337096e-07
1.475543e-06
3.936607e-05
1.859692e-06
1.044868e-06
3.289867e-04
8.409022e-06
4.116093e-05
3.944005e-05
8.936470e-06
2.123522e-05
2.892998e-07
8.260575e-06
3.090831e-05
2.732087e-05
5.552275e-05
3.609350e-05
4.698920e-05
3.272520e-04
1.318575e-07
2.456814e-06
1.433342e-05
8.427793e-05
1.450944e-05
2.908030e-05
3.061511e-07
5.575602e-07
3.684518e-07
1.466234e-04
5.609320e-05
8.671822e-05
5.358204e-05
1.967770e-05
6.436857e-06
9.709036e-05
8.292178e-06
1.075870e-04
1.944357e-04
3.190882e-06
2.588011e-05
6.907373e-06
4.439596e-05
5.464513e-06
1.486948e-04
1.890987e-04
1.267195e-05
5.598878e-05
1.149196e-06
2.320590e-06
1.456367e-04
1.381852e-04
8.618354e-07
1.112805e-04
4.171404e-06
4.417946e-06
1.980038e-04
1.112546e-06
2.263533e-04
1.118771e-05
9.738687e-05
8.570654e-06
8.555340e-05
6.662702e-06
1.247438e-06
3.026276e-05
1.910236e-04
5.504419e-07
4.635282e-05
8.205797e-06
1.417540e-05
3.153964e-05
4.197449e-05
3.974312e-05
1.978246e-05
3.040016e-07
1.961045e-04
2.003242e-07
2.822830e-05
4.935699e-06
1.599519e-05
8.904250e-06
2.094754e-05
5.279615e-06
3.447526e-05
1.477735e-05
6.371190e-05
9.610850e-06
2.051748e-04
4.227139e-05
3.299342e-05
6.305260e-05
2.120414e-06
3.217947e-05
1.594312e-04
1.489322e-07
3.869251e-06
1.695986e-05
1.909249e-05
1.701323e-05
9.081873e-07
7.209463e-05
1.151715e-05
1.561215e-05
4.949120e-06
1.149312e-06
1.849386e-05
1.251797e-05
2.476010e-05
1.094501e-04
3.222500e-06
3.887509e-07
1.464031e-06
7.144640e-05
5.024401e-06
7.867019e-05
1.631191e-04
1.134588e-04
3.411391e-05
1.078028e-04
1.190893e-04
2.049418e-05
9.141182e-05
3.575784e-07
3.229476e-06
2.898473e-04
2.602686e-06
1.512415e-04
8.571995e-05
8.897584e-08
1.051842e-04
1.709328e-04
8.365709e-05
5.892120e-06
4.001677e-06
4.072637e-05
3.057755e-04
1.149373e-05
1.662556e-05
1.610482e-04
4.743340e-06
5.936902e-06
9.061173e-05
3.441681e-04
6.736216e-06
7.351812e-05
9.304829e-07
7.191919e-05
1.194040e-04
6.842004e-06
8.242427e-05
8.136996e-05
3.388796e-05
1.530712e-04
8.459941e-05
5.308663e-06
8.547033e-05
1.319318e-05
2.090674e-08
5.794128e-05
7.461592e-06
1.134198e-04
4.309446e-05
2.948512e-05
1.241571e-05
9.330751e-05
2.046913e-04
2.363457e-05
6.227408e-05
8.546611e-07
4.295888e-05
5.917966e-05
6.509728e-05
4.619434e-05
1.463941e-04
3.408756e-05
1.044847e-07
3.578140e-06
1.074645e-05
4.899347e-06
7.678807e-05
4.909752e-05
3.100380e-05
2.586947e-05
1.736901e-05
6.741425e-05
2.582364e-04
2.524224e-04
8.789491e-05
1.143307e-05
2.117327e-04
5.936582e-05
3.872183e-07
4.315424e-05
2.406447e-07
3.368268e-05
9.700520e-05
7.513340e-05
1.447340e-04
1.707868e-05
2.005763e-05
5.475148e-05
1.510875e-05
1.160193e-04
1.690965e-06
1.575872e-05
1.075700e-04
1.069022e-04
1.148466e-05
9.888608e-05
2.014590e-10
6.350932e-05
1.242342e-05
2.337485e-05
2.821830e-05
6.633801e-05
1.175624e-04
3.409248e-05
1.958104e-05
3.053058e-06
4.034447e-06
1.345076e-04
1.194739e-04
3.845694e-05
1.304181e-04
7.777468e-06
8.106478e-05
1.180215e-05
3.407602e-06
1.786719e-05
5.731279e-05
1.867843e-06
5.885610e-05
5.121041e-06
2.237176e-05
8.946157e-05
9.980771e-07
1.354561e-04
1.219477e-04
4.294707e-06
7.152625e-06
1.406108e-04
7.078025e-05
2.055935e-07
5.134907e-06
3.391293e-05
5.535036e-05
3.966923e-05
4.110281e-06
2.450979e-05
1.894890e-05
6.417451e-05
6.368613e-07
2.763866e-08
8.321319e-06
1.092998e-06
4.274874e-07
1.120738e-04
6.480511e-06
1.041913e-04
1.443734e-04
5.003405e-05
7.451306e-06
5.661419e-05
4.644186e-05
1.656112e-06
7.856392e-08
9.157849e-06
1.965401e-05
1.648312e-05
8.069190e-05
1.626061e-06
2.284613e-04
4.983573e-05
3.193864e-04
1.676598e-04
1.208223e-05
8.570788e-05
6.697406e-06
3.848424e-04
2.235891e-05
7.188186e-05
1.108327e-04
3.342234e-05
7.124528e-05
7.804008e-06
1.273243e-04
5.661563e-05
1.282269e-05
3.549330e-05
2.276859e-06
2.786966e-05
5.002540e-05
1.736907e-05
9.089676e-06
1.183892e-04
3.790789e-05
1.287955e-05
7.347680e-06
4.710355e-05
6.147015e-06
7.897776e-08
5.059450e-05
2.131134e-04
1.010523e-05
3.481694e-05
5.535248e-08
1.003964e-05
3.250717e-04
1.131549e-04
5.536482e-05
7.067058e-05
7.037966e-06
1.564438e-04
1.945621e-04
7.164959e-05
2.748862e-06
2.652338e-04
4.376830e-07
2.069383e-04
8.061255e-05
4.265695e-05
3.285222e-04
2.755618e-05
5.025192e-06
5.877834e-06
2.491531e-05
1.157656e-04
2.643498e-05
1.028541e-04
1.432133e-06
1.612171e-04
7.734249e-07
1.263119e-07
8.032595e-05
7.718961e-06
4.051508e-06
3.342207e-05
2.499972e-05
1.893828e-06
5.853754e-06
1.075682e-04
1.262148e-04
9.254552e-05
1.119042e-04
1.127120e-06
1.287411e-04
1.451947e-06
9.453563e-05
2.485499e-04
9.994552e-06
3.303576e-04
1.890162e-06
7.950143e-07
4.163421e-07
2.049160e-06
8.341334e-05
4.925292e-05
1.960462e-05
5.892279e-05
3.442647e-05
3.870436e-06
1.449592e-06
1.958592e-06
3.642047e-05
1.307033e-05
1.527796e-05
1.549538e-05
2.624984e-04
5.703172e-05
1.872780e-05
3.710137e-06
6.376699e-05
5.552118e-05
2.496684e-07
3.977499e-07
2.130435e-05
5.674694e-05
3.449112e-05
1.666534e-04
2.162869e-04
1.180556e-05
5.151566e-05
2.167255e-04
2.264140e-06
6.199012e-05
8.047504e-06
2.037414e-04
1.840369e-05
7.196354e-06
5.560571e-05
4.684358e-06
6.965570e-07
3.496041e-05
1.669800e-04
1.923638e-04
2.231397e-05
5.069890e-05
2.586386e-04
1.247392e-06
9.801773e-05
3.807987e-05
2.210351e-07
2.636983e-05
3.089573e-05
1.935203e-04
1.985051e-07
1.422625e-04
1.997809e-06
2.128553e-05
5.301475e-05
7.518283e-05
3.285333e-05
5.562115e-05
2.178308e-08
4.512839e-05
1.295354e-04
1.590037e-07
4.336768e-05
4.406667e-05
3.920949e-08
3.459934e-05
9.288023e-06
3.203408e-05
2.052938e-04
4.630131e-05
3.401369e-05
2.237283e-05
2.791188e-05
4.951509e-06
6.434586e-07
1.169481e-04
1.770275e-05
2.384324e-05
4.192155e-05
1.935297e-05
1.137955e-05
1.255341e-05
5.376989e-06
1.805847e-05
3.283402e-04
3.660916e-05
3.037511e-04
9.802793e-06
8.732517e-05
2.995621e-05
4.332370e-05
2.979976e-04
6.638393e-05
4.311600e-07
7.896495e-06
4.174080e-07
4.003012e-06
1.895512e-05
6.923255e-05
8.523461e-05
4.524633e-06
2.365734e-05
1.469228e-05
7.353743e-05
1.637441e-05
2.096168e-05
5.405063e-05
2.400808e-04
6.898245e-05
1.078558e-04
4.207538e-05
2.363813e-06
3.392994e-05
7.603064e-06
3.581976e-06
2.254456e-05
9.199373e-05
1.058301e-04
2.393161e-05
7.026744e-06
4.768859e-06
1.730990e-04
5.409811e-07
4.676777e-06
4.249812e-05
1.177816e-05
7.181158e-05
9.548738e-05
4.252583e-05
2.085233e-05
5.856862e-06
4.662150e-06
1.710223e-06
6.986544e-06
9.192386e-05
3.688231e-05
2.690678e-05
2.803187e-07
1.311111e-06
3.996083e-04
1.111029e-05
1.509690e-07
7.637404e-06
1.066343e-04
3.557265e-04
2.845829e-05
1.698013e-06
3.199576e-06
8.246130e-06
4.110720e-05
9.029319e-05
3.862990e-05
1.286671e-05
1.073176e-04
2.021281e-04
9.051914e-06
6.357145e-05
7.016559e-05
8.242827e-06
2.888145e-06
2.590466e-05
1.251960e-05
5.051681e-06
2.310576e-08
1.501388e-04
3.157503e-05
7.356943e-05
1.000754e-07
8.059995e-07
7.596151e-06
8.845557e-05
1.925044e-06
4.857450e-06
4.307992e-05
1.335785e-05
2.386739e-05
1.028916e-06
2.724907e-05
4.939091e-05
5.113469e-05
1.131485e-06
8.860778e-05
9.890345e-05
6.965650e-05
8.856179e-07
3.416581e-05
9.326539e-06
4.264140e-05
3.294331e-06
1.940387e-05
5.905255e-05
1.443247e-07
2.448461e-04
1.683794e-05
1.136677e-05
5.045463e-06
1.986067e-06
1.095068e-04
1.237197e-04
2.257856e-06
7.707186e-05
2.024331e-05
1.351722e-06
3.293084e-05
9.385795e-06
1.457101e-05
5.166678e-05
5.221416e-05
3.968325e-06
1.951101e-04
1.012163e-07
2.486469e-05
1.030374e-06
3.851847e-05
7.621969e-05
1.519579e-05
3.129521e-05
8.161698e-05
3.011243e-04
1.751274e-06
3.986588e-08
4.121972e-05
4.853605e-05
2.481032e-05
2.852761e-05
5.399864e-05
7.723023e-07
9.356244e-07
1.202884e-04
8.156464e-05
1.268815e-04
1.677160e-04
5.797872e-06
4.281979e-05
2.077536e-06
2.752231e-05
3.390033e-06
1.412176e-04
1.938531e-06
9.748321e-05
4.607548e-06
3.357887e-05
2.276796e-05
2.380435e-04
3.082017e-05
6.355794e-05
3.757273e-05
2.214564e-10
1.251688e-04
1.693349e-04
3.240415e-05
3.661872e-05
1.144799e-04
5.567061e-06
5.606205e-07
4.687048e-05
1.428965e-05
5.391456e-06
5.100880e-05
3.161741e-06
9.010454e-05
8.080332e-06
3.496589e-04
6.290952e-05
1.592792e-05
8.687492e-05
3.921585e-06
8.781727e-06
1.393053e-05
2.220650e-05
2.790712e-05
4.141070e-05
3.350359e-06
7.006198e-05
1.660305e-04
1.134474e-05
3.715224e-05
1.519619e-05
2.617815e-04
1.106701e-05
9.942995e-07
2.417150e-05
2.309660e-05
1.843902e-05
3.301009e-05
5.699004e-04
1.556188e-06
1.745580e-05
8.066142e-06
7.094011e-05
6.849739e-06
3.601986e-05
3.126042e-06
2.779664e-05
1.986251e-04
1.440269e-06
5.321694e-05
3.275802e-05
8.046477e-05
5.600964e-06
7.733930e-06
2.493444e-05
3.659254e-05
9.712217e-06
2.521600e-05
2.278342e-04
2.610047e-05
2.446017e-04
7.839912e-07
2.276519e-05
1.018100e-05
5.843638e-05
2.413085e-04
8.750120e-06
1.417498e-06
9.764945e-06
1.585534e-05
7.623339e-05
1.277074e-05
5.287777e-06
2.250631e-04
1.498327e-05
9.492121e-07
1.471860e-04
1.327201e-04
1.411192e-05
8.293952e-05
7.954550e-06
9.188443e-05
3.048761e-05
8.099108e-06
2.357655e-04
2.903416e-05
5.232980e-05
1.080130e-06
6.084420e-05
6.932773e-08
1.194132e-04
1.960092e-04
1.615072e-05
2.808152e-05
1.998425e-06
1.252611e-04
1.425783e-04
7.531907e-05
5.425762e-05
1.369311e-04
3.171345e-05
3.224232e-05
3.329648e-06
5.537095e-05
2.085020e-04
1.327326e-05
4.723659e-05
3.867900e-06
1.024711e-05
6.235690e-05
6.912329e-05
5.032508e-06
3.931858e-04
2.958325e-05
3.371839e-06
1.002966e-04
7.190717e-06
5.270096e-05
7.455714e-05
2.952854e-06
6.032967e-05
6.061610e-05
3.317331e-06
2.217449e-06
4.080283e-06
1.545033e-04
7.488560e-05
1.534218e-06
3.307574e-05
1.795488e-04
7.102088e-05
2.303946e-06
1.241031e-06
2.054876e-05
2.271538e-04
3.639289e-05
9.446347e-05
4.527398e-06
1.092322e-04
1.073611e-04
1.697001e-05
9.514605e-05
1.297789e-06
1.168156e-04
7.408261e-05
3.480835e-07
1.056230e-04
4.150069e-05
4.228184e-05
3.474208e-07
9.885032e-05
1.895941e-04
3.383765e-07
1.769796e-04
5.332712e-05
5.725337e-06
4.262689e-07
1.209389e-05
1.383588e-07
4.711887e-10
3.474016e-06
8.143121e-06
1.382239e-06
3.868311e-04
2.429652e-05
9.078740e-07
3.738023e-05
9.464256e-05
8.607110e-08
1.421465e-04
2.220010e-05
1.037720e-04
1.192417e-05
1.441270e-05
9.328084e-05
4.829113e-05
9.248802e-05
1.957439e-05
6.910249e-05
1.730906e-07
1.838099e-04
6.756331e-05
2.682621e-06
5.156148e-05
4.230449e-05
2.555030e-05
1.010433e-04
3.233478e-10
7.056594e-05
3.057764e-05
1.507021e-06
4.709215e-06
2.035223e-04
3.134451e-05
1.168984e-05
6.622081e-05
5.616284e-07
1.260816e-04
1.603455e-04
5.964720e-05
4.185945e-07
3.814222e-05
1.923696e-04
2.870357e-05
1.080712e-04
1.027484e-10
1.995406e-06
7.975509e-05
1.511421e-08
7.854313e-05
5.551364e-06
1.922120e-04
1.599780e-04
1.335588e-05
5.707612e-05
7.892417e-05
2.458772e-05
1.079283e-04
5.408276e-05
5.030378e-05
2.521744e-05
7.082283e-05
1.339286e-05
1.649565e-05
1.271440e-04
6.846103e-07
2.226093e-06
6.013988e-08
7.976232e-05
5.756726e-05
3.461275e-05
3.160772e-08
6.145864e-05
1.610229e-04
4.832332e-05
6.301581e-05
4.094132e-05
5.667770e-06
6.972101e-06
1.134004e-04
2.061040e-04
1.157846e-05
2.973531e-05
8.767367e-07
1.521493e-04
5.578656e-05
4.739552e-06
1.910952e-04
1.854450e-05
7.272791e-09
1.123058e-04
1.159418e-05
5.435695e-05
2.130499e-06
1.117774e-05
3.982461e-05
1.425338e-05
4.303599e-05
1.963458e-06
1.868282e-05
2.244507e-05
1.609080e-06
1.225643e-06
2.228800e-05
2.450846e-04
2.478097e-06
2.302358e-05
3.320475e-05
7.320636e-05
1.925987e-05
9.182693e-05
6.973093e-05
6.130574e-06
4.284731e-06
3.174405e-06
7.268291e-06
3.028035e-06
3.635506e-08
6.987181e-05
2.280145e-05
8.736316e-05
9.067329e-10
1.744250e-04
3.215773e-05
2.159706e-04
2.585681e-05
6.190321e-05
1.274472e-04
1.695832e-04
6.474392e-05
6.761296e-05
5.438087e-05
1.456491e-05
3.898664e-06
1.260267e-04
1.733674e-06
1.381817e-04
1.451839e-04
1.040995e-05
1.861160e-08
1.911578e-07
1.890700e-06
1.902675e-05
6.062450e-05
5.789721e-05
2.243608e-06
8.945216e-06
4.164947e-05
2.766961e-06
2.717029e-04
1.421012e-06
6.545686e-05
2.633742e-04
2.945222e-05
5.538922e-05
5.840371e-06
3.706991e-05
3.426401e-05
4.375458e-05
4.976064e-05
1.530392e-06
9.405081e-07
2.609200e-06
1.243056e-04
7.955472e-06
2.915985e-05
4.402402e-05
1.942154e-06
5.093012e-05
9.571928e-05
7.385460e-07
6.850754e-06
6.584624e-05
2.148054e-05
5.544897e-05
4.888255e-05
2.235627e-05
7.119883e-05
2.996427e-04
1.879420e-04
1.963932e-05
9.387520e-05
1.536140e-06
5.900309e-05
1.825569e-05
9.307368e-06
1.313959e-05
3.811238e-05
2.315584e-05
1.758837e-04
1.019153e-05
1.582575e-04
3.303523e-07
2.872397e-05
3.054766e-05
1.245429e-05
1.011866e-04
3.299069e-05
4.388705e-07
3.755331e-05
2.845078e-06
2.063951e-04
2.592484e-05
3.483661e-07
7.232933e-06
3.728288e-05
2.261601e-04
3.820842e-05
2.364998e-05
1.402654e-04
1.316363e-06
7.673676e-07
4.443908e-05
2.183555e-05
3.028076e-06
4.960931e-06
7.349181e-05
2.689094e-05
7.105606e-05
8.691812e-05
1.138061e-05
3.288011e-05
1.307027e-05
2.678509e-05
1.781903e-04
1.028388e-05
1.101925e-05
1.308017e-04
1.333335e-05
3.983674e-05
4.391763e-05
2.306422e-05
9.855753e-07
1.516279e-05
1.393731e-05
3.627170e-06
1.744332e-05
4.191651e-05
9.024249e-05
3.424522e-05
3.517907e-05
1.329724e-04
1.021462e-04
3.239765e-05
3.356777e-08
1.594349e-05
1.264322e-08
1.195519e-04
5.915882e-05
2.451701e-05
3.011115e-07
2.825774e-04
1.433558e-05
1.929708e-06
1.029225e-06
2.702058e-06
5.800178e-06
4.435004e-05
1.832456e-08
1.254508e-05
1.794177e-05
4.744236e-06
4.671612e-07
5.968485e-05
1.551674e-05
7.077298e-05
3.433870e-04
3.092517e-05
4.544866e-06
7.274483e-04
1.300435e-06
4.274588e-05
1.466191e-04
4.566106e-07
1.798965e-05
7.818675e-07
9.507121e-05
3.276870e-06
2.169528e-04
6.528848e-05
5.217972e-07
5.630483e-07
3.811897e-05
2.108499e-05
1.817899e-07
1.101755e-05
2.934042e-04
2.179816e-05
6.555259e-05
1.253128e-05
1.976394e-04
3.473176e-05
2.393314e-08
1.163383e-04
8.757962e-07
1.146869e-04
9.927703e-07
2.583168e-05
2.949383e-06
1.820149e-04
1.360463e-04
1.994629e-06
1.051376e-04
7.923093e-07
1.577427e-04
9.397390e-08
8.835577e-07
1.500181e-05
1.184033e-04
1.035998e-05
9.506171e-08
1.659735e-04
1.436364e-05
4.220094e-05
1.695591e-04
1.874040e-06
1.521242e-04
5.389424e-05
5.074595e-05
4.053519e-05
4.263537e-05
5.627927e-05
1.356219e-04
1.329309e-05
1.346484e-05
9.610412e-06
5.933538e-05
1.558396e-04
3.100645e-06
1.503503e-05
2.141071e-05
5.834356e-07
9.486845e-05
5.535710e-06
1.844013e-04
7.082278e-05
6.462716e-05
1.155302e-05
2.059033e-05
6.845497e-05
8.879096e-05
1.576810e-06
4.216574e-05
2.642979e-05
1.159451e-04
2.270649e-05
1.232486e-04
2.480185e-05
4.758685e-05
1.563211e-05
3.348818e-05
1.706506e-04
7.262804e-05
2.743039e-05
8.420988e-06
1.904688e-08
2.861329e-05
3.127250e-05
8.246249e-06
4.575417e-07
1.107419e-05
2.505495e-05
7.025003e-05
8.275579e-07
4.020801e-06
4.898282e-07
2.379105e-05
2.628285e-08
1.400075e-05
2.670356e-06
3.058990e-05
2.479886e-05
2.768588e-05
2.205610e-06
2.235416e-05
3.962169e-05
1.017171e-04
1.191745e-04
1.110455e-05
1.136185e-05
1.132319e-05
2.132788e-04
1.399541e-05
4.413399e-05
1.814210e-06
4.173664e-04
2.893725e-06
7.456465e-06
2.416072e-05
6.979191e-05
9.546676e-05
3.573565e-05
3.021141e-06
7.864307e-07
1.476798e-05
6.393551e-05
1.133600e-04
1.674290e-07
2.193391e-07
1.957799e-06
1.473593e-05
3.958086e-05
1.732896e-04
1.581478e-05
1.716027e-04
4.098002e-06
6.255798e-08
1.113816e-06
1.763441e-04
5.633403e-05
1.320538e-04
3.665032e-05
1.269661e-08
1.028429e-07
3.074578e-04
2.938145e-05
2.132301e-05
9.912613e-06
3.920853e-06
6.990103e-06
1.428214e-05
1.668782e-04
1.953553e-04
1.518211e-07
1.659368e-06
3.292712e-06
1.041843e-07
5.413904e-06
5.743992e-07
1.203440e-05
2.322783e-04
1.407057e-05
8.928233e-06
1.599643e-05
7.608339e-05
1.115285e-05
6.634940e-05
2.189017e-05
1.632630e-04
5.903588e-05
9.765085e-06
2.354040e-06
5.355744e-06
4.947467e-06
1.110459e-04
8.791485e-07
1.778666e-04
6.993512e-06
7.117227e-06
2.126749e-04
3.893455e-06
1.803485e-05
2.560462e-04
7.900543e-05
3.155934e-05
2.690636e-05
7.909599e-07
2.300527e-05
9.603325e-05
1.839907e-04
3.057893e-05
7.351395e-06
6.019309e-06
1.934801e-04
2.120541e-05
1.599278e-04
2.273339e-05
4.017639e-05
3.203513e-05
3.408108e-05
1.946491e-05
2.626490e-04
2.205151e-05
3.342589e-06
8.527592e-07
5.424925e-05
1.154718e-06
3.162696e-06
4.111352e-05
5.105690e-05
1.050909e-04
6.878548e-08
7.006053e-05
3.455468e-04
8.357772e-05
8.546594e-07
1.921573e-04
4.313405e-05
3.071776e-05
1.225577e-06
1.322251e-04
1.282406e-04
7.512785e-06
4.420710e-06
8.696632e-07
3.717998e-05
3.150160e-05
1.980614e-06
3.834435e-05
1.363062e-04
3.591855e-05
2.088181e-04
3.230410e-06
9.302258e-07
8.271350e-06
1.677134e-04
9.883894e-05
4.465700e-05
1.750493e-04
7.269128e-05
1.424780e-06
7.711301e-06
3.217989e-06
4.949514e-06
3.393627e-05
4.124496e-06
1.352519e-04
3.880918e-05
4.697888e-06
1.639119e-05
4.471917e-05
1.717694e-06
1.420034e-04
7.063153e-05
5.418747e-05
1.076574e-04
6.508577e-05
5.781492e-06
1.226763e-09
2.769648e-06
4.574160e-05
3.410257e-07
5.977944e-05
2.884168e-06
7.490286e-05
1.046968e-04
2.443183e-05
1.687822e-05
1.335835e-05
1.422542e-04
1.205954e-04
5.335236e-06
1.128910e-05
2.228120e-04
1.277822e-05
7.544125e-06
1.766320e-05
3.233372e-05
1.913683e-04
3.276305e-04
4.221056e-05
8.681737e-06
4.543874e-05
3.385800e-05
2.042520e-05
2.049792e-04
2.126036e-05
1.594045e-06
6.378265e-06
7.444908e-06
7.461249e-05
4.501990e-06
2.719286e-05
1.591409e-06
7.816211e-05
1.944743e-05
2.446073e-05
1.167129e-04
2.186839e-04
1.803471e-04
7.761436e-07
6.810578e-05
7.820073e-05
1.044079e-04
2.826224e-05
1.241462e-04
1.885469e-05
3.802974e-05
9.179762e-05
6.134601e-05
1.004426e-04
9.080451e-06
2.690717e-09
1.115632e-04
1.410730e-04
4.790000e-06
1.199127e-05
1.005410e-04
2.662757e-05
1.585803e-05
4.986054e-05
7.469478e-05
4.032229e-07
1.575940e-04
4.884689e-06
2.839874e-06
5.378266e-07
3.241496e-07
1.088852e-04
5.760847e-05
1.050709e-05
6.050798e-05
1.357091e-04
6.316521e-07
3.043649e-05
1.681215e-04
1.013100e-05
9.641778e-06
4.351125e-06
1.766889e-05
6.360550e-05
1.219558e-05
1.354087e-04
5.788318e-05
2.469457e-05
4.991355e-06
1.092240e-04
2.378561e-05
1.574753e-05
2.656804e-05
3.847358e-05
2.623846e-08
8.608014e-06
8.453575e-07
1.919379e-06
4.099935e-06
1.645506e-05
4.261910e-06
1.088270e-05
1.788127e-04
2.739950e-06
4.357522e-05
1.095734e-04
1.351267e-04
3.000541e-05
1.292008e-04
3.462988e-05
9.637421e-09
1.455185e-04
1.963450e-07
2.413524e-05
4.908168e-07
3.004130e-05
5.331684e-07
6.305507e-06
1.027833e-04
6.428564e-06
3.985387e-05
1.003619e-04
2.283096e-04
1.178833e-05
9.723797e-06
2.805502e-04
1.355713e-05
2.826922e-05
7.008858e-06
3.816967e-07
5.807950e-09
1.288253e-04
4.577065e-05
1.686337e-05
1.270831e-04
2.765521e-05
4.337141e-08
7.791724e-05
4.350762e-05
6.208765e-05
1.011184e-04
3.883551e-05
4.051572e-05
1.051721e-05
1.513951e-05
8.140724e-06
2.385847e-04
5.894098e-06
1.540246e-04
5.528371e-07
8.097684e-07
6.925573e-06
1.002728e-06
1.424025e-05
3.101174e-05
1.171265e-04
1.677437e-07
3.088525e-05
2.557058e-06
1.804069e-05
2.639302e-05
6.110552e-05
1.218844e-04
8.407605e-06
1.173589e-06
1.527217e-05
1.952789e-05
6.317473e-06
2.436098e-04
1.326947e-06
9.399232e-05
3.338923e-05
6.324036e-05
2.428401e-05
6.510704e-05
9.265839e-06
8.671033e-05
1.192399e-05
2.484111e-04
1.625773e-04
2.498167e-07
2.850931e-05
2.539426e-05
1.692272e-04
2.668114e-06
3.081180e-06
3.162518e-06
2.638505e-05
1.677856e-04
9.344170e-05
2.095547e-05
1.367206e-04
2.987742e-05
3.582745e-07
2.984493e-07
9.126670e-08
6.808785e-06
1.023364e-04
1.355992e-04
2.290645e-05
3.391823e-07
1.057897e-04
5.477795e-05
6.139013e-06
4.413012e-05
3.344640e-06
8.792774e-06
1.316686e-05
2.757496e-05
6.677326e-07
5.474355e-06
5.633587e-05
4.064243e-05
3.167422e-05
2.620832e-04
1.185456e-04
6.913655e-06
1.341342e-06
1.265877e-04
2.388492e-05
7.735633e-05
2.717875e-05
1.975347e-05
2.003749e-05
3.794975e-05
5.384149e-05
2.804911e-05
5.968131e-05
2.055984e-05
1.011461e-04
1.725071e-04
7.334697e-06
4.112106e-05
1.492425e-05
4.258156e-05
1.952409e-06
1.396926e-05
1.386361e-04
1.441851e-04
7.211367e-07
5.861699e-08
7.423848e-05
1.348057e-05
1.540519e-05
5.026761e-05
7.006479e-05
9.780471e-06
2.887334e-05
1.116586e-04
6.803301e-05
2.663662e-05
5.161652e-05
1.927445e-05
7.330267e-05
1.063262e-04
4.956703e-05
2.418420e-06
2.542179e-06
1.526173e-05
2.183381e-06
5.512794e-05
1.619119e-04
1.041115e-05
3.996439e-06
4.800884e-06
3.710408e-05
8.785127e-05
3.200281e-05
1.378263e-04
4.966195e-05
3.177074e-07
2.299355e-05
4.510202e-05
4.060375e-05
5.986584e-05
5.716761e-06
6.390536e-05
1.640426e-05
2.603796e-04
1.433693e-05
4.942836e-05
7.776842e-06
6.494143e-05
1.232303e-04
1.023181e-05
1.611531e-04
6.338980e-08
6.472763e-06
1.973208e-04
3.076767e-05
5.427250e-07
1.205868e-05
8.034337e-07
6.254229e-05
7.685676e-07
7.083546e-05
5.978349e-06
3.480292e-05
1.998447e-04
3.277701e-05
3.758782e-05
7.685395e-05
2.420671e-05
2.201667e-05
3.922188e-04
1.226726e-05
3.607775e-06
1.154346e-05
3.904655e-06
1.412535e-04
1.996391e-05
2.058930e-06
1.391369e-04
2.698806e-05
3.436461e-06
7.186116e-05
1.047109e-04
4.820338e-05
3.277415e-04
7.628067e-05
4.007328e-05
1.500225e-05
5.629188e-05
7.769283e-05
4.874832e-05
3.318670e-05
8.763776e-06
4.254820e-05
1.227497e-06
1.730844e-05
1.045463e-04
6.143393e-05
1.452617e-05
9.690996e-05
8.303609e-05
2.170792e-05
1.490620e-06
3.618776e-06
4.589303e-05
5.623917e-06
2.326101e-07
2.157293e-05
2.110618e-04
5.698304e-06
1.847004e-04
1.060497e-05
1.286311e-06
1.011817e-04
2.505820e-04
5.904315e-06
2.373789e-04
6.591030e-05
8.215509e-07
3.246956e-05
3.051918e-04
5.318425e-05
2.264908e-05
2.121473e-06
1.378671e-04
8.414085e-05
1.013605e-04
3.486222e-06
2.990517e-05
1.002814e-06
8.289435e-06
8.342378e-05
2.524168e-05
3.357791e-06
1.480966e-04
4.095375e-06
2.140269e-08
1.000466e-05
4.494477e-05
5.679516e-05
3.673913e-05
1.348873e-05
8.349248e-08
7.512087e-05
1.010882e-05
6.439022e-06
1.234559e-04
1.451337e-04
1.182779e-05
1.061203e-04
6.218563e-05
4.903160e-07
1.277075e-04
3.931226e-04
1.772476e-05
5.080119e-07
1.418559e-04
2.916156e-06
2.951675e-05
2.933282e-05
9.076794e-08
3.145783e-06
1.840999e-04
2.675658e-05
2.722872e-06
5.085636e-05
6.368894e-05
6.729507e-05
5.697338e-07
6.493374e-05
3.562107e-06
1.725250e-04
1.106561e-04
9.645149e-08
1.225943e-04
2.455334e-05
6.045565e-05
2.133106e-06
1.245860e-04
7.438537e-05
4.378755e-07
1.286825e-04
6.861407e-06
2.392372e-06
4.636301e-05
2.785415e-07
2.178771e-05
2.550833e-05
2.550785e-04
1.369987e-06
1.478194e-06
3.622854e-05
3.259846e-05
3.101510e-05
1.395019e-06
3.154898e-05
7.524645e-06
2.483489e-06
1.947094e-05
4.694211e-06
2.241303e-04
5.857952e-05
6.422943e-05
1.786300e-05
3.417224e-06
7.538355e-07
9.648698e-05
7.822452e-08
3.327919e-05
5.084060e-05
1.923477e-04
2.811759e-04
1.314844e-04
5.145469e-05
1.356262e-06
1.218827e-05
3.543944e-05
8.139689e-05
1.197624e-08
1.352193e-04
1.452637e-05
8.721878e-05
2.600567e-05
1.135999e-06
7.153220e-06
2.088380e-05
3.791144e-05
3.850857e-05
2.603052e-05
3.345356e-05
3.764463e-05
1.810575e-04
1.286822e-05
5.689232e-05
1.129135e-04
3.213471e-05
1.035041e-04
3.307267e-09
7.182858e-05
1.490410e-05
4.187726e-05
6.536405e-05
1.704749e-06
8.611530e-05
7.274403e-06
1.693334e-05
9.914874e-07
9.867538e-05
2.186728e-05
5.894547e-05
1.047622e-04
4.525897e-04
3.425061e-05
2.259679e-04
4.413366e-05
2.280727e-05
2.181868e-05
8.589668e-05
4.399962e-05
5.378260e-04
8.834448e-06
1.329143e-05
7.579031e-05
6.908480e-06
6.577355e-06
1.236494e-04
8.591134e-05
8.443010e-05
3.942714e-05
6.532012e-05
1.961381e-05
1.320272e-08
3.094734e-06
1.231637e-05
1.206685e-04
4.910342e-06
4.088525e-05
1.776716e-08
8.722764e-06
1.823351e-04
3.312268e-05
5.670294e-06
2.990538e-05
1.635984e-04
4.538323e-05
2.429522e-06
2.081858e-05
1.698756e-04
9.156750e-05
2.401842e-05
9.113344e-05
2.199493e-04
1.397954e-06
2.224865e-05
7.086639e-06
5.653831e-05
5.162111e-07
1.095428e-04
1.279847e-04
2.445380e-05
1.332630e-05
2.616677e-04
3.251796e-05
1.042889e-05
1.032489e-04
2.170173e-05
5.924634e-05
5.085610e-05
8.031641e-05
1.315838e-05
2.355046e-07
3.080274e-05
7.732870e-06
5.871828e-05
5.318434e-05
2.456393e-05
1.486563e-05
2.770176e-04
2.896546e-07
2.809440e-05
1.174645e-04
5.064413e-05
5.718153e-06
2.310532e-06
2.709037e-05
3.206934e-05
5.758561e-05
1.679586e-06
1.477635e-04
1.900140e-07
1.584244e-04
9.426713e-05
1.485299e-05
6.488502e-05
1.323416e-04
4.136918e-06
3.746110e-05
1.345852e-05
4.105739e-06
9.864291e-05
5.279660e-05
3.926961e-05
1.897281e-05
1.196530e-05
1.912744e-04
7.679713e-05
8.672446e-07
1.183455e-06
6.998419e-05
2.519734e-04
5.933307e-08
4.665925e-07
1.128147e-04
1.214224e-04
5.266171e-06
9.562352e-06
2.294984e-05
2.717474e-04
1.181542e-05
3.467112e-06
9.454271e-05
3.551129e-05
2.412044e-07
1.763200e-05
1.253266e-05
2.723736e-05
2.284378e-04
1.248088e-04
7.253343e-05
2.399617e-05
1.680089e-05
6.689444e-06
2.037527e-07
4.002475e-05
6.026907e-05
1.003632e-04
3.047250e-08
2.403893e-04
7.161570e-05
5.787094e-08
6.461405e-05
5.796397e-05
2.642674e-07
5.874105e-05
8.832980e-06
1.674302e-04
5.152783e-05
2.832326e-05
3.734291e-05
1.368567e-06
6.725955e-05
1.361663e-05
1.776318e-04
2.315153e-04
4.779081e-06
2.656855e-07
4.726930e-05
3.212514e-04
4.069110e-06
1.225618e-08
6.916596e-05
1.385234e-04
2.660647e-05
9.651797e-05
5.447405e-05
3.277022e-06
1.363700e-06
1.372789e-05
4.143671e-05
1.169417e-05
1.969072e-06
1.231885e-04
6.994014e-06
9.599351e-07
1.122111e-04
4.071612e-06
6.790903e-07
3.585702e-04
1.034082e-06
4.526055e-05
4.871252e-05
4.220877e-05
2.475389e-05
1.032698e-04
9.907827e-07
1.179176e-04
1.109868e-06
4.304548e-05
6.581833e-08
6.091575e-05
1.300917e-05
1.044176e-04
1.716118e-04
5.436398e-05
8.642969e-07
1.160637e-04
1.310739e-04
6.433986e-05
5.732071e-06
4.945627e-05
2.081936e-06
6.104986e-06
2.783964e-06
5.280815e-06
3.120717e-05
4.732834e-05
1.279488e-05
1.543208e-04
1.128454e-05
8.969824e-07
7.971739e-05
8.379468e-05
2.309058e-05
5.561542e-05
1.583104e-04
4.816124e-05
4.147457e-05
3.445957e-06
8.622131e-05
8.498047e-05
3.177358e-05
1.431784e-06
1.035181e-06
6.436873e-06
2.277150e-05
4.226793e-05
1.224315e-04
1.034103e-04
7.879120e-08
1.069339e-05
2.415644e-06
6.314839e-05
2.206864e-04
3.990958e-05
3.901966e-06
6.230627e-06
7.340123e-05
4.337262e-05
6.652373e-05
5.236214e-06
3.644692e-06
5.078061e-05
1.486079e-05
5.300056e-05
1.051929e-04
2.702202e-06
6.954437e-06
3.122660e-05
8.735906e-05
5.590501e-05
1.416127e-05
1.078462e-04
7.700273e-05
5.389287e-05
4.410051e-05
1.426967e-04
7.294447e-05
3.475950e-05
1.474669e-04
2.177794e-06
4.495359e-05
5.079978e-05
1.872308e-04
6.189881e-05
2.654841e-07
3.880267e-07
2.727640e-06
4.142158e-04
3.032645e-05
8.001573e-05
2.905659e-05
1.436325e-04
3.398503e-05
1.292901e-05
6.438098e-05
1.622352e-06
1.160402e-05
3.016669e-05
5.499274e-05
3.136822e-08
2.037657e-04
7.657932e-05
1.284603e-05
1.229676e-06
9.457624e-05
6.785729e-07
2.148400e-06
3.450038e-05
1.182360e-04
1.639145e-04
2.078168e-04
7.726443e-07
3.003959e-05
2.036628e-05
2.041838e-05
5.967743e-04
6.478072e-07
4.737007e-08
1.798341e-04
2.343737e-06
1.128234e-05
2.140907e-06
4.112319e-05
1.645641e-04
7.902301e-05
3.829987e-05
5.849719e-05
8.793868e-05
1.063176e-05
3.162333e-06
7.311691e-05
4.356065e-05
7.205801e-06
2.865919e-04
5.907823e-05
2.797876e-06
4.348371e-05
7.521316e-05
8.693182e-05
2.546464e-05
4.732665e-06
3.439682e-05
1.572498e-06
2.453546e-05
1.201210e-05
1.612491e-04
8.623717e-05
5.885333e-07
2.918572e-05
1.562443e-04
1.099867e-04
4.006811e-05
3.613831e-05
1.012619e-04
5.168398e-05
1.123481e-04
1.174994e-05
1.379084e-05
5.040190e-05
2.931926e-06
2.631463e-07
7.550073e-05
2.057885e-05
1.545812e-04
3.019728e-05
8.700696e-06
4.913409e-05
2.719675e-05
4.440612e-05
1.828171e-06
1.067991e-05
2.272639e-05
3.709412e-05
8.615755e-05
6.542978e-05
8.198138e-06
1.427330e-07
5.204961e-05
1.108508e-05
2.605290e-05
7.970175e-05
8.576119e-05
3.980411e-05
7.364939e-05
1.947901e-04
4.167721e-06
1.272660e-05
6.760422e-05
8.103227e-05
2.531721e-05
9.559517e-06
1.970781e-05
3.513104e-05
4.315513e-05
2.484625e-05
1.236426e-05
1.354745e-04
1.658700e-05
6.129611e-07
2.951366e-05
1.452592e-05
8.428839e-05
7.912813e-06
1.464691e-04
2.274556e-05
2.117424e-05
2.886848e-04
1.757796e-06
1.694757e-05
1.193597e-04
1.457094e-05
3.752107e-06
1.431217e-04
2.622034e-05
1.699689e-06
6.726687e-04
1.562858e-05
1.058094e-05
7.515511e-05
2.259348e-07
3.060286e-04
3.320609e-05
2.033814e-05
2.605553e-05
3.053445e-05
3.724759e-06
2.286378e-05
2.052257e-05
4.412333e-05
9.098218e-05
1.987876e-04
2.964629e-06
2.110058e-07
4.464816e-05
9.538932e-06
2.098335e-04
1.060371e-04
6.115114e-07
1.444312e-06
2.128139e-06
4.531044e-05
2.589086e-05
1.914209e-06
1.101596e-04
4.298577e-05
3.623412e-05
2.762242e-05
8.218203e-06
1.648707e-04
2.157559e-04
8.963081e-07
1.750784e-04
5.418540e-05
2.627341e-05
9.161277e-06
5.948319e-05
1.164323e-05
4.403206e-06
2.032786e-05
2.164028e-04
3.481502e-08
1.071563e-04
5.188954e-05
1.489043e-04
6.737965e-05
2.233516e-08
1.937172e-05
1.469856e-05
2.917537e-04
1.598697e-05
3.157316e-05
1.116871e-06
1.103308e-04
9.267677e-05
1.407023e-05
8.935417e-05
2.178640e-06
1.201931e-04
1.694329e-04
1.956259e-05
1.532046e-05
2.244339e-05
2.657793e-07
7.536778e-06
4.805444e-08
6.266546e-05
2.491532e-05
1.875901e-05
1.670813e-05
1.316418e-06
5.005748e-07
6.490332e-05
8.803082e-05
7.122907e-05
3.384401e-04
3.521985e-05
3.600377e-05
4.820767e-06
7.134916e-05
1.761823e-04
1.447043e-05
8.956821e-06
1.126677e-04
8.095967e-05
7.048376e-05
4.197137e-05
6.473595e-05
9.028697e-05
6.831113e-05
7.578525e-05
5.703666e-07
9.843318e-05
1.177811e-06
2.412479e-04
3.522704e-05
1.891038e-08
1.837225e-05
2.132136e-06
5.213672e-06
1.517438e-05
4.264695e-05
4.160362e-05
2.071402e-05
5.674181e-07
4.196618e-06
1.693089e-05
3.981237e-06
7.726331e-05
7.287484e-06
7.629067e-07
1.831262e-05
4.485164e-05
2.296924e-05
9.506499e-05
4.014438e-05
2.150441e-05
9.287202e-05
3.616497e-05
4.685155e-05
4.328237e-06
2.464178e-04
8.988540e-05
9.625139e-05
5.976821e-10
4.018431e-05
7.052264e-06
2.159963e-05
7.630060e-05
2.045487e-05
5.784129e-05
2.430865e-05
1.934324e-05
1.354438e-05
9.797557e-05
9.035991e-05
3.417781e-05
1.439866e-04
1.308059e-06
1.600715e-04
6.923277e-05
5.528709e-05
3.215189e-05
1.917336e-05
1.676728e-04
1.805863e-06
3.130045e-05
5.005044e-05
4.073551e-08
1.916824e-05
9.002537e-05
4.191019e-04
5.164489e-05
2.103774e-05
1.400264e-06
3.253576e-05
2.161744e-05
4.592928e-05
2.779460e-04
8.349511e-05
6.716121e-08
4.936051e-05
2.361703e-05
2.656467e-04
3.304548e-07
1.443344e-04
5.811155e-06
1.859191e-06
3.714044e-05
2.603137e-04
7.545154e-05
1.984726e-05
3.312845e-05
6.356422e-05
6.190628e-06
3.039351e-04
1.469847e-06
2.510220e-07
1.056473e-04
1.208926e-04
7.948945e-06
2.878055e-07
3.359920e-05
3.292829e-05
3.556763e-06
5.269208e-06
2.082818e-04
6.454722e-06
3.682095e-05
3.319983e-06
3.108371e-05
6.536079e-05
5.969853e-08
2.924810e-05
1.564488e-05
1.478105e-04
8.192061e-05
3.044884e-05
1.484289e-04
4.687590e-06
6.355775e-06
3.544875e-05
1.109354e-05
1.343972e-06
2.957912e-05
1.547588e-05
2.541717e-05
8.276707e-08
9.984389e-05
2.594436e-06
6.919588e-05
7.102798e-05
2.962450e-05
4.509272e-05
2.915232e-04
1.018986e-04
3.249263e-05
1.692358e-05
1.242749e-04
1.752602e-05
1.264410e-07
1.213064e-04
1.272904e-05
7.693331e-05
3.239998e-05
1.496039e-05
7.981987e-05
1.008474e-05
5.883828e-06
8.826260e-06
9.591254e-05
4.130234e-06
9.933415e-05
1.077712e-05
3.328802e-04
2.553359e-07
8.078186e-05
1.158771e-04
5.272905e-05
3.507137e-05
2.514430e-06
2.675363e-08
3.528516e-05
2.762651e-04
2.050063e-05
2.626628e-05
9.530891e-06
8.515555e-07
1.032563e-05
2.197678e-05
6.751160e-05
2.215566e-04
7.021699e-05
1.279226e-06
2.612159e-05
1.035167e-05
6.976012e-05
2.611154e-05
3.941280e-07
5.142677e-06
6.997529e-06
3.127068e-05
2.443195e-05
2.825734e-07
1.814355e-06
1.799494e-05
3.607687e-06
6.977079e-05
8.606756e-06
3.843323e-05
1.659870e-04
1.398520e-06
9.706338e-08
9.223879e-05
2.527756e-06
4.172239e-05
5.770099e-05
1.489123e-04
4.754597e-07
3.683182e-05
3.162318e-06
1.644884e-05
1.074173e-05
1.294198e-06
1.280455e-04
4.417881e-04
2.904235e-05
7.969967e-06
5.374334e-05
7.926786e-05
6.972525e-08
5.652849e-05
1.113458e-04
1.619262e-04
1.661973e-05
6.942645e-06
3.239770e-05
1.516481e-05
5.780857e-06
2.100186e-04
8.343618e-06
6.133853e-06
4.980668e-05
1.131675e-04
4.165842e-05
1.612862e-05
9.746346e-06
2.135269e-06
4.238484e-06
7.767662e-05
2.918676e-05
1.118618e-06
3.628626e-05
2.784888e-06
5.580983e-08
8.375989e-05
9.869092e-06
7.644212e-05
6.254281e-05
7.720063e-06
4.460172e-05
8.181755e-05
8.966853e-05
3.863330e-09
7.373103e-05
9.191484e-11
3.318942e-07
1.899824e-06
1.134710e-04
3.077609e-04
1.535710e-04
7.775424e-05
2.169164e-05
2.040170e-05
4.250022e-06
5.797779e-05
6.336765e-05
2.106629e-05
2.988235e-06
1.632681e-04
6.486245e-05
1.588254e-05
1.529655e-04
1.469995e-06
1.026416e-05
4.356411e-06
5.062104e-05
2.095909e-05
2.710495e-06
1.735298e-04
7.724618e-05
5.635365e-05
3.886861e-05
9.338013e-05
1.222596e-04
2.621233e-04
5.299716e-05
1.562373e-05
1.142288e-05
9.060947e-05
1.083215e-04
2.724983e-05
5.742503e-05
1.955796e-05
2.071062e-05
4.683562e-05
1.113363e-05
2.888081e-05
8.762539e-05
6.808803e-05
1.272538e-05
2.835183e-07
1.869391e-06
4.286384e-05
3.855653e-08
3.523365e-05
8.932316e-05
1.937302e-05
4.358927e-05
1.742246e-05
1.010187e-06
4.380020e-06
1.900917e-05
6.489576e-05
3.848655e-04
9.727610e-05
1.146577e-05
4.705623e-05
2.857767e-04
5.637915e-06
1.340854e-04
8.549835e-06
9.291619e-06
8.638195e-06
3.975601e-04
6.942294e-05
1.049464e-05
1.545474e-05
4.479187e-07
4.854059e-05
4.015317e-05
1.831021e-07
2.776753e-05
4.200913e-05
1.127878e-04
7.882343e-05
9.661554e-06
1.121958e-05
3.243777e-06
1.304107e-04
3.387097e-05
1.417852e-05
1.146060e-05
2.721231e-05
2.860195e-04
1.332346e-06
5.279902e-05
3.882225e-05
1.477279e-05
1.309350e-05
1.148978e-05
1.344047e-04
2.523964e-05
7.206343e-05
1.723905e-05
2.042504e-04
4.305833e-05
4.188936e-07
1.560158e-05
7.792773e-05
5.784931e-05
2.307891e-06
3.688664e-06
1.924855e-04
3.123260e-05
1.700913e-04
2.833125e-06
4.730649e-06
3.464666e-05
8.596932e-05
1.290033e-04
1.760405e-07
9.234983e-06
5.991601e-06
1.044507e-04
2.948620e-05
1.043201e-05
9.987290e-06
3.930061e-06
9.714106e-05
6.612173e-05
7.041923e-06
7.721351e-05
1.501088e-05
1.133828e-04
5.583281e-07
3.297891e-05
3.438881e-05
2.155964e-06
9.393653e-05
4.340941e-05
9.540048e-06
9.408103e-05
2.463012e-04
8.223986e-05
2.583689e-06
1.693484e-07
6.141490e-06
3.254955e-05
3.172668e-06
7.389779e-07
3.808221e-05
3.124269e-05
1.471492e-05
1.236610e-04
5.216453e-05
6.704293e-05
1.121476e-05
8.239890e-05
6.566003e-07
1.171951e-04
9.687952e-05
5.040258e-07
2.938183e-05
7.305756e-05
7.055075e-05
1.113125e-05
7.337779e-07
1.274218e-04
1.101579e-04
7.668415e-06
5.654176e-06
2.812388e-07
4.224403e-06
1.216325e-05
9.898504e-05
3.654006e-06
7.258900e-05
6.050891e-05
7.641100e-05
2.629298e-04
1.991424e-05
1.523035e-04
4.382182e-09
3.014289e-05
4.493666e-05
1.633649e-06
2.178077e-05
6.783586e-05
8.258425e-05
1.220496e-04
1.095898e-06
1.651613e-04
1.168813e-06
9.011830e-05
2.679988e-05
9.763488e-05
1.154205e-08
3.492777e-05
6.225018e-07
2.973095e-04
4.007894e-05
1.875786e-04
1.639335e-05
1.467198e-04
7.117775e-06
4.369174e-06
5.285478e-06
1.068184e-04
5.643995e-05
8.183993e-06
5.235512e-05
3.383882e-05
1.293744e-05
1.007664e-04
1.197701e-07
6.899240e-06
3.503293e-06
3.035980e-05
3.284466e-05
6.600584e-05
4.686420e-05
3.058401e-06
7.718088e-06
6.560654e-06
1.663782e-04
3.542339e-05
1.399860e-06
1.115860e-04
1.289509e-04
3.530917e-05
2.875884e-05
2.963567e-06
5.131238e-05
1.417418e-05
2.055188e-04
1.476977e-04
3.940348e-05
7.074445e-06
4.349625e-05
1.727259e-05
7.670591e-06
2.624358e-06
7.761001e-05
1.043862e-04
1.008648e-04
9.277307e-05
4.131598e-05
4.915645e-05
2.152037e-04
1.695065e-04
7.552152e-05
3.125106e-05
2.445218e-05
9.157001e-05
1.720229e-05
6.518932e-05
3.532840e-05
5.841256e-05
8.848484e-06
5.843974e-05
5.491776e-10
2.616448e-05
1.407551e-04
4.954456e-06
1.331198e-04
7.734279e-06
5.197930e-05
5.870150e-06
1.200919e-06
4.070332e-06
6.556733e-06
3.207392e-08
6.174705e-06
1.197912e-04
6.121933e-05
1.530514e-05
6.610851e-05
3.760284e-05
7.386588e-05
1.138184e-04
3.398044e-09
2.429713e-05
1.113812e-04
1.377027e-05
1.903316e-04
3.637073e-05
8.091147e-05
5.010032e-05
3.335791e-05
2.506880e-05
9.089077e-06
2.755635e-05
4.519020e-08
3.532938e-05
1.703104e-05
7.021189e-05
9.529094e-05
4.144605e-04
1.683071e-05
1.560913e-04
1.030246e-04
7.951635e-07
1.704606e-09
1.530775e-06
1.549399e-04
5.059039e-05
1.343999e-04
8.544832e-06
6.652408e-05
1.417353e-05
9.964860e-05
5.262323e-06
9.373585e-05
9.867786e-07
2.810122e-04
8.393684e-06
1.142154e-05
7.128829e-05
3.242270e-05
2.965462e-06
5.573619e-05
4.734521e-05
1.782184e-05
5.673048e-06
1.277484e-06
4.389193e-07
7.262911e-06
5.774033e-05
2.144650e-06
5.861628e-05
1.980537e-04
1.483158e-04
3.073954e-05
4.562386e-06
2.422411e-05
2.215026e-04
1.729073e-07
1.664962e-05
2.340989e-06
7.835603e-05
8.909358e-07
1.828000e-07
4.492751e-05
3.636443e-05
1.311710e-05
7.568160e-06
9.333967e-08
5.167490e-04
1.562297e-07
1.405020e-05
4.067967e-07
9.494660e-05
2.026175e-05
9.556542e-09
9.968609e-06
3.194181e-05
8.202428e-05
4.126020e-05
1.121571e-04
1.184659e-04
3.518096e-05
2.686598e-04
9.963379e-10
3.360302e-06
1.450902e-05
3.682370e-05
6.016022e-05
1.509196e-04
9.469684e-05
5.289227e-05
5.014438e-06
3.865726e-05
2.237475e-07
1.456354e-04
4.108444e-05
3.505164e-05
1.404862e-04
2.513464e-04
2.470586e-04
4.167620e-07
1.177017e-04
5.851711e-05
1.938959e-05
1.148524e-04
4.964689e-05
2.810390e-05
4.193169e-05
1.333103e-05
7.720743e-06
8.953831e-05
3.680324e-06
5.310681e-05
2.278641e-05
5.123593e-06
3.268379e-05
2.172416e-05
1.881332e-04
1.579177e-04
4.506471e-05
1.399241e-08
1.552427e-09
4.388962e-06
7.182111e-06
7.243088e-07
4.154433e-05
3.075787e-06
7.944529e-05
1.403279e-04
3.423889e-05
1.657577e-05
3.722773e-05
4.432743e-05
1.786240e-06
1.824304e-04
3.500735e-05
2.990254e-08
6.084942e-06
1.657075e-05
1.119439e-05
1.236722e-04
4.949031e-06
1.973305e-04
1.093338e-05
8.762973e-05
2.768992e-06
1.409193e-07
6.556050e-10
8.082742e-05
1.494842e-04
1.835526e-04
1.000194e-04
5.081528e-05
2.150098e-05
1.186355e-06
1.509050e-04
7.801213e-05
1.073528e-05
1.580215e-06
2.523884e-06
1.869672e-06
3.679529e-08
3.373715e-09
1.438431e-05
5.307690e-05
5.147760e-05
1.596340e-05
2.639376e-05
2.652763e-04
9.689505e-05
4.569668e-05
3.357236e-05
1.886651e-05
1.099859e-04
8.683520e-06
1.015226e-04
1.145419e-05
1.901650e-05
5.990342e-05
7.980831e-06
1.775902e-05
2.084038e-04
1.067429e-05
1.768785e-04
3.342723e-05
4.140390e-05
6.851715e-05
2.354461e-06
1.261673e-05
1.287008e-04
1.064631e-04
9.021480e-05
6.917206e-06
1.187974e-07
1.441898e-05
1.181178e-04
2.601742e-04
4.330973e-06
2.221601e-04
2.282766e-05
1.652601e-08
1.602144e-04
1.216636e-06
1.348129e-06
2.862338e-05
1.324819e-04
7.095181e-06
1.193090e-04
4.603896e-05
5.693163e-06
2.546415e-06
3.902732e-05
9.189084e-05
2.213615e-04
5.024323e-06
1.141138e-05
4.296006e-05
1.354019e-04
1.351170e-05
1.809924e-04
6.139219e-05
2.438717e-05
8.743442e-07
1.324911e-04
1.135018e-04
1.955465e-05
1.022180e-06
8.501859e-07
7.876960e-05
7.001629e-05
8.443004e-07
1.601236e-04
9.009155e-05
2.770764e-05
