2.125000e-03
1.925000e-02
1.812500e-02
2.125000e-03
2.500000e-03
2.125000e-03
1.925000e-02
1.962500e-02
1.925000e-02
2.500000e-03
2.125000e-03
1.975000e-02
2.125000e-03
2.375000e-03
8.250000e-03
1.937500e-02
1.937500e-02
1.925000e-02
1.237500e-02
4.875000e-03
2.125000e-03
2.250000e-03
1.925000e-02
2.125000e-03
2.125000e-03
1.925000e-02
2.125000e-03
6.375000e-03
2.125000e-03
1.162500e-02
2.375000e-03
1.925000e-02
1.925000e-02
1.925000e-02
1.937500e-02
2.125000e-03
1.925000e-02
1.937500e-02
1.925000e-02
2.625000e-03
1.925000e-02
6.875000e-03
1.925000e-02
1.950000e-02
2.125000e-03
3.625000e-03
6.375000e-03
1.925000e-02
1.950000e-02
1.925000e-02
2.000000e-03
2.250000e-03
2.250000e-03
1.962500e-02
1.925000e-02
1.925000e-02
1.937500e-02
2.500000e-03
1.075000e-02
1.850000e-02
2.500000e-03
1.937500e-02
2.125000e-03
2.125000e-03
1.925000e-02
2.500000e-03
1.925000e-02
2.250000e-03
1.925000e-02
2.500000e-03
2.000000e-03
1.925000e-02
1.925000e-02
2.125000e-03
1.400000e-02
2.125000e-03
1.925000e-02
1.925000e-02
1.925000e-02
1.925000e-02
1.925000e-02
1.887500e-02
2.625000e-03
2.500000e-03
2.125000e-03
1.937500e-02
1.937500e-02
2.125000e-03
2.125000e-03
1.937500e-02
2.125000e-03
1.937500e-02
1.925000e-02
1.925000e-02
1.975000e-02
2.500000e-03
1.625000e-02
2.500000e-03
4.750000e-03
1.925000e-02
1.925000e-02
1.925000e-02
2.375000e-03
1.925000e-02
2.125000e-03
1.937500e-02
2.375000e-03
2.000000e-03
1.962500e-02
1.012500e-02
1.937500e-02
2.125000e-03
1.937500e-02
1.937500e-02
1.962500e-02
1.937500e-02
1.937500e-02
1.937500e-02
1.925000e-02
7.000000e-03
1.700000e-02
1.975000e-02
1.925000e-02
1.950000e-02
2.125000e-03
4.375000e-03
1.012500e-02
1.925000e-02
1.937500e-02
2.500000e-03
1.575000e-02
2.125000e-03
1.937500e-02
1.175000e-02
1.812500e-02
8.625000e-03
2.125000e-03
1.937500e-02
1.937500e-02
4.625000e-03
2.500000e-03
1.937500e-02
2.125000e-03
2.125000e-03
1.937500e-02
2.000000e-03
9.375000e-03
2.375000e-03
1.937500e-02
2.500000e-03
1.950000e-02
1.925000e-02
1.937500e-02
1.937500e-02
2.375000e-03
1.312500e-02
2.000000e-03
2.375000e-03
1.937500e-02
1.925000e-02
1.925000e-02
1.387500e-02
1.312500e-02
2.375000e-03
1.925000e-02
1.950000e-02
1.925000e-02
1.937500e-02
1.925000e-02
2.125000e-03
1.925000e-02
1.937500e-02
3.125000e-03
2.125000e-03
2.500000e-03
1.925000e-02
1.925000e-02
2.625000e-03
2.500000e-03
2.500000e-03
1.937500e-02
2.125000e-03
9.875000e-03
2.125000e-03
1.937500e-02
1.925000e-02
1.387500e-02
7.875000e-03
9.375000e-03
2.625000e-03
2.500000e-03
1.937500e-02
2.125000e-03
1.937500e-02
2.125000e-03
2.375000e-03
4.750000e-03
2.000000e-03
2.125000e-03
1.462500e-02
2.500000e-03
2.250000e-03
1.625000e-02
1.937500e-02
1.925000e-02
2.375000e-03
2.500000e-03
3.125000e-03
2.500000e-03
2.000000e-03
3.125000e-03
2.125000e-03
2.500000e-03
1.925000e-02
2.125000e-03
1.925000e-02
1.937500e-02
1.937500e-02
2.000000e-03
2.000000e-03
2.375000e-03
1.925000e-02
1.937500e-02
2.375000e-03
2.500000e-03
2.375000e-03
1.937500e-02
1.925000e-02
1.937500e-02
2.000000e-03
2.125000e-03
2.125000e-03
1.962500e-02
2.500000e-03
1.937500e-02
2.125000e-03
1.925000e-02
2.500000e-03
1.937500e-02
1.937500e-02
1.937500e-02
1.937500e-02
2.375000e-03
1.937500e-02
3.250000e-03
2.375000e-03
2.125000e-03
7.250000e-03
2.375000e-03
1.975000e-02
1.950000e-02
1.875000e-03
1.875000e-03
6.875000e-03
8.500000e-03
1.937500e-02
2.000000e-03
2.000000e-03
2.000000e-03
1.950000e-02
1.937500e-02
1.212500e-02
1.937500e-02
3.375000e-03
2.500000e-03
2.500000e-03
2.500000e-03
1.937500e-02
2.500000e-03
2.500000e-03
2.250000e-03
2.000000e-03
1.937500e-02
1.937500e-02
1.387500e-02
1.937500e-02
1.925000e-02
2.125000e-03
1.950000e-02
1.937500e-02
2.000000e-03
1.937500e-02
7.000000e-03
1.937500e-02
1.937500e-02
1.925000e-02
2.125000e-03
1.250000e-02
1.925000e-02
1.937500e-02
1.050000e-02
2.500000e-03
2.500000e-03
1.050000e-02
1.937500e-02
1.925000e-02
1.925000e-02
1.937500e-02
1.937500e-02
1.937500e-02
2.250000e-03
1.925000e-02
6.625000e-03
2.000000e-03
1.962500e-02
2.000000e-03
2.125000e-03
1.925000e-02
2.125000e-03
2.125000e-03
2.375000e-03
1.937500e-02
1.087500e-02
2.500000e-03
2.000000e-03
1.925000e-02
1.925000e-02
2.000000e-03
1.925000e-02
1.937500e-02
6.250000e-03
7.625000e-03
1.925000e-02
7.750000e-03
7.875000e-03
1.925000e-02
2.000000e-03
2.500000e-03
2.125000e-03
1.162500e-02
1.925000e-02
1.937500e-02
2.000000e-03
2.125000e-03
2.000000e-03
1.125000e-02
1.937500e-02
2.000000e-03
2.500000e-03
1.937500e-02
1.862500e-02
1.937500e-02
1.962500e-02
1.925000e-02
2.000000e-03
2.125000e-03
1.937500e-02
1.937500e-02
2.500000e-03
2.000000e-03
1.925000e-02
2.000000e-03
1.925000e-02
1.925000e-02
1.925000e-02
2.125000e-03
1.937500e-02
2.000000e-03
2.125000e-03
1.937500e-02
6.250000e-03
1.162500e-02
2.500000e-03
1.937500e-02
1.937500e-02
1.537500e-02
1.387500e-02
1.937500e-02
1.387500e-02
1.925000e-02
2.000000e-03
1.237500e-02
1.925000e-02
3.250000e-03
2.125000e-03
2.000000e-03
1.925000e-02
2.125000e-03
2.500000e-03
9.250000e-03
2.125000e-03
2.375000e-03
2.500000e-03
2.250000e-03
2.125000e-03
1.975000e-02
1.925000e-02
2.125000e-03
1.937500e-02
2.375000e-03
1.937500e-02
2.375000e-03
1.975000e-02
2.125000e-03
1.937500e-02
1.925000e-02
1.925000e-02
2.375000e-03
2.000000e-03
2.375000e-03
2.625000e-03
7.375000e-03
1.925000e-02
2.500000e-03
1.950000e-02
2.000000e-03
1.925000e-02
1.937500e-02
1.937500e-02
1.162500e-02
4.000000e-03
2.375000e-03
9.250000e-03
2.375000e-03
1.012500e-02
1.925000e-02
1.925000e-02
1.925000e-02
2.000000e-03
1.937500e-02
1.937500e-02
2.125000e-03
2.000000e-03
1.925000e-02
1.962500e-02
1.925000e-02
1.937500e-02
2.125000e-03
1.937500e-02
1.925000e-02
1.925000e-02
1.925000e-02
2.125000e-03
1.912500e-02
1.625000e-02
1.275000e-02
2.875000e-03
1.937500e-02
2.250000e-03
2.125000e-03
2.000000e-03
2.000000e-03
2.000000e-03
2.000000e-03
1.775000e-02
1.925000e-02
2.500000e-03
2.375000e-03
1.462500e-02
1.975000e-02
2.125000e-03
2.375000e-03
2.500000e-03
1.875000e-03
1.925000e-02
2.125000e-03
1.925000e-02
2.000000e-03
1.937500e-02
1.937500e-02
1.937500e-02
2.125000e-03
5.125000e-03
2.000000e-03
1.937500e-02
8.500000e-03
2.000000e-03
1.925000e-02
1.962500e-02
1.937500e-02
1.925000e-02
1.937500e-02
1.937500e-02
1.050000e-02
1.925000e-02
2.750000e-03
1.925000e-02
1.625000e-02
8.250000e-03
1.962500e-02
2.500000e-03
2.000000e-03
2.250000e-03
1.937500e-02
2.500000e-03
2.000000e-03
1.975000e-02
1.937500e-02
4.750000e-03
9.000000e-03
2.125000e-03
2.000000e-03
2.000000e-03
2.375000e-03
2.000000e-03
7.875000e-03
1.937500e-02
1.925000e-02
2.000000e-03
1.925000e-02
2.125000e-03
2.375000e-03
1.050000e-02
2.375000e-03
1.925000e-02
2.500000e-03
1.925000e-02
1.000000e-02
2.500000e-03
1.925000e-02
2.125000e-03
2.125000e-03
1.937500e-02
1.937500e-02
7.125000e-03
1.925000e-02
1.900000e-02
1.012500e-02
1.937500e-02
2.000000e-03
2.000000e-03
2.250000e-03
1.025000e-02
2.000000e-03
2.125000e-03
1.925000e-02
1.925000e-02
1.087500e-02
1.925000e-02
2.125000e-03
2.500000e-03
2.250000e-03
9.750000e-03
1.937500e-02
2.125000e-03
2.000000e-03
1.975000e-02
2.500000e-03
2.125000e-03
1.975000e-02
2.500000e-03
2.500000e-03
1.000000e-02
2.375000e-03
5.500000e-03
1.875000e-03
1.862500e-02
1.937500e-02
1.937500e-02
1.937500e-02
1.937500e-02
3.875000e-03
1.387500e-02
1.937500e-02
1.925000e-02
1.937500e-02
2.125000e-03
1.075000e-02
1.937500e-02
1.487500e-02
1.937500e-02
2.125000e-03
1.350000e-02
2.375000e-03
2.125000e-03
2.000000e-03
2.000000e-03
1.925000e-02
1.925000e-02
1.700000e-02
1.962500e-02
3.250000e-03
2.000000e-03
1.937500e-02
2.125000e-03
1.212500e-02
2.125000e-03
1.925000e-02
2.375000e-03
2.000000e-03
2.125000e-03
1.937500e-02
2.000000e-03
2.375000e-03
1.950000e-02
2.125000e-03
2.125000e-03
2.375000e-03
1.875000e-03
1.937500e-02
2.375000e-03
1.937500e-02
2.000000e-03
1.937500e-02
1.937500e-02
2.000000e-03
1.925000e-02
1.962500e-02
1.925000e-02
1.937500e-02
1.275000e-02
1.937500e-02
2.375000e-03
1.937500e-02
1.925000e-02
1.937500e-02
1.937500e-02
9.375000e-03
1.950000e-02
1.937500e-02
1.937500e-02
1.925000e-02
1.087500e-02
1.912500e-02
1.925000e-02
1.975000e-02
1.325000e-02
1.975000e-02
1.937500e-02
2.000000e-03
1.925000e-02
1.937500e-02
2.500000e-03
1.862500e-02
2.125000e-03
5.125000e-03
2.000000e-03
2.125000e-03
1.875000e-03
1.387500e-02
1.362500e-02
2.000000e-03
1.037500e-02
2.375000e-03
2.000000e-03
2.375000e-03
2.000000e-03
2.375000e-03
2.375000e-03
1.550000e-02
2.125000e-03
2.125000e-03
2.000000e-03
1.925000e-02
2.125000e-03
2.000000e-03
1.925000e-02
1.937500e-02
1.875000e-03
1.937500e-02
1.937500e-02
1.937500e-02
2.000000e-03
1.937500e-02
1.937500e-02
1.937500e-02
1.950000e-02
2.000000e-03
2.000000e-03
1.975000e-02
2.500000e-03
1.962500e-02
2.125000e-03
1.937500e-02
1.925000e-02
7.125000e-03
1.925000e-02
2.000000e-03
1.937500e-02
1.925000e-02
1.937500e-02
2.000000e-03
1.437500e-02
1.937500e-02
2.000000e-03
1.937500e-02
1.925000e-02
1.975000e-02
2.125000e-03
1.700000e-02
2.125000e-03
2.250000e-03
1.937500e-02
1.875000e-03
1.925000e-02
1.787500e-02
1.937500e-02
1.937500e-02
2.000000e-03
2.500000e-03
1.937500e-02
2.125000e-03
8.250000e-03
2.250000e-03
1.937500e-02
2.375000e-03
1.937500e-02
1.925000e-02
1.637500e-02
6.250000e-03
2.375000e-03
1.787500e-02
2.000000e-03
1.925000e-02
1.975000e-02
1.937500e-02
3.250000e-03
1.937500e-02
1.925000e-02
1.937500e-02
2.000000e-03
2.125000e-03
1.925000e-02
2.000000e-03
1.425000e-02
1.937500e-02
1.550000e-02
1.937500e-02
1.937500e-02
1.975000e-02
2.375000e-03
1.950000e-02
1.937500e-02
1.950000e-02
1.937500e-02
2.375000e-03
2.000000e-03
2.000000e-03
1.950000e-02
2.125000e-03
1.875000e-03
1.937500e-02
1.937500e-02
1.925000e-02
2.375000e-03
1.937500e-02
1.975000e-02
2.000000e-03
1.950000e-02
1.962500e-02
3.125000e-03
1.925000e-02
1.962500e-02
1.937500e-02
1.937500e-02
1.712500e-02
2.000000e-03
2.125000e-03
1.925000e-02
1.950000e-02
1.962500e-02
1.937500e-02
1.700000e-02
7.000000e-03
8.625000e-03
1.937500e-02
2.125000e-03
4.000000e-03
1.937500e-02
2.250000e-03
1.950000e-02
1.937500e-02
1.950000e-02
7.750000e-03
6.375000e-03
2.000000e-03
2.000000e-03
1.875000e-03
1.300000e-02
1.412500e-02
2.250000e-03
1.875000e-03
1.937500e-02
1.937500e-02
1.937500e-02
1.937500e-02
1.875000e-03
1.937500e-02
1.937500e-02
1.875000e-03
1.937500e-02
9.250000e-03
2.500000e-03
2.000000e-03
1.937500e-02
1.937500e-02
1.937500e-02
1.875000e-03
1.550000e-02
1.950000e-02
1.925000e-02
1.950000e-02
1.900000e-02
1.950000e-02
1.875000e-03
2.000000e-03
2.000000e-03
2.625000e-03
2.000000e-03
1.750000e-03
2.375000e-03
2.000000e-03
1.712500e-02
2.000000e-03
7.000000e-03
1.875000e-03
1.937500e-02
1.950000e-02
1.950000e-02
1.950000e-02
1.937500e-02
1.950000e-02
1.937500e-02
2.250000e-03
1.962500e-02
1.987500e-02
9.250000e-03
1.937500e-02
1.937500e-02
2.125000e-03
2.250000e-03
1.937500e-02
2.375000e-03
4.625000e-03
1.950000e-02
1.875000e-03
1.937500e-02
6.250000e-03
2.250000e-03
1.950000e-02
1.875000e-03
1.712500e-02
9.750000e-03
1.875000e-03
1.875000e-03
1.875000e-03
1.937500e-02
1.325000e-02
1.950000e-02
2.375000e-03
1.050000e-02
1.937500e-02
2.000000e-03
1.950000e-02
1.937500e-02
1.750000e-03
1.937500e-02
1.950000e-02
2.250000e-03
1.950000e-02
1.950000e-02
1.937500e-02
1.937500e-02
2.000000e-03
1.937500e-02
1.937500e-02
2.250000e-03
1.450000e-02
1.300000e-02
2.250000e-03
1.950000e-02
2.375000e-03
1.937500e-02
1.075000e-02
2.000000e-03
3.500000e-03
1.937500e-02
1.975000e-02
1.950000e-02
1.100000e-02
1.975000e-02
2.375000e-03
2.125000e-03
2.000000e-03
1.950000e-02
1.937500e-02
2.375000e-03
2.375000e-03
2.000000e-03
2.375000e-03
1.950000e-02
1.937500e-02
2.000000e-03
2.000000e-03
3.125000e-03
1.550000e-02
1.925000e-02
1.875000e-03
1.937500e-02
1.637500e-02
2.000000e-03
1.875000e-03
2.000000e-03
1.937500e-02
2.250000e-03
1.737500e-02
1.962500e-02
1.937500e-02
1.962500e-02
2.375000e-03
1.937500e-02
1.925000e-02
1.950000e-02
2.375000e-03
1.937500e-02
1.937500e-02
2.000000e-03
2.000000e-03
2.000000e-03
2.000000e-03
3.625000e-03
1.937500e-02
1.937500e-02
2.875000e-03
1.950000e-02
1.937500e-02
2.125000e-03
1.925000e-02
2.500000e-03
1.950000e-02
2.375000e-03
1.350000e-02
1.937500e-02
3.250000e-03
2.125000e-03
1.637500e-02
1.937500e-02
2.250000e-03
1.875000e-02
1.925000e-02
1.925000e-02
2.000000e-03
1.975000e-02
1.975000e-02
1.937500e-02
2.500000e-03
1.937500e-02
9.875000e-03
2.500000e-03
2.250000e-03
7.125000e-03
1.925000e-02
1.975000e-02
1.875000e-03
2.250000e-03
1.937500e-02
1.925000e-02
2.500000e-03
2.125000e-03
2.000000e-03
1.950000e-02
1.937500e-02
1.937500e-02
1.925000e-02
1.937500e-02
1.937500e-02
4.625000e-03
1.937500e-02
1.937500e-02
2.500000e-03
1.937500e-02
1.925000e-02
2.375000e-03
2.250000e-03
1.962500e-02
1.975000e-02
2.000000e-03
1.075000e-02
1.950000e-02
2.000000e-03
7.875000e-03
1.937500e-02
2.500000e-03
2.500000e-03
2.125000e-03
2.125000e-03
2.000000e-03
1.925000e-02
2.500000e-03
1.925000e-02
2.000000e-03
1.925000e-02
1.975000e-02
1.925000e-02
1.925000e-02
2.000000e-03
5.500000e-03
1.025000e-02
1.850000e-02
1.925000e-02
2.000000e-03
1.937500e-02
1.937500e-02
1.937500e-02
2.125000e-03
1.475000e-02
2.375000e-03
1.375000e-02
1.775000e-02
1.937500e-02
1.937500e-02
1.937500e-02
2.125000e-03
2.125000e-03
2.375000e-03
2.000000e-03
3.125000e-03
8.625000e-03
1.925000e-02
2.000000e-03
2.000000e-03
2.125000e-03
1.162500e-02
1.925000e-02
2.000000e-03
1.937500e-02
2.000000e-03
2.500000e-03
1.937500e-02
7.000000e-03
2.000000e-03
2.125000e-03
2.125000e-03
1.937500e-02
1.625000e-02
1.937500e-02
1.925000e-02
1.937500e-02
1.937500e-02
1.925000e-02
1.937500e-02
1.900000e-02
1.012500e-02
2.000000e-03
1.937500e-02
2.125000e-03
2.500000e-03
1.937500e-02
2.125000e-03
1.937500e-02
2.500000e-03
2.375000e-03
2.125000e-03
1.937500e-02
1.937500e-02
1.925000e-02
2.500000e-03
2.125000e-03
1.937500e-02
2.000000e-03
1.937500e-02
2.500000e-03
1.925000e-02
2.125000e-03
2.000000e-03
1.937500e-02
2.125000e-03
1.937500e-02
2.625000e-03
5.500000e-03
2.250000e-03
1.937500e-02
1.937500e-02
1.925000e-02
2.500000e-03
2.000000e-03
2.000000e-03
1.400000e-02
2.500000e-03
1.925000e-02
1.475000e-02
2.500000e-03
2.125000e-03
1.362500e-02
2.500000e-03
2.000000e-03
2.125000e-03
1.925000e-02
1.925000e-02
2.125000e-03
1.937500e-02
1.537500e-02
1.975000e-02
1.937500e-02
1.925000e-02
1.250000e-02
2.500000e-03
1.937500e-02
1.087500e-02
2.000000e-03
1.737500e-02
1.925000e-02
2.125000e-03
2.000000e-03
1.937500e-02
2.000000e-03
2.125000e-03
1.925000e-02
7.250000e-03
2.000000e-03
2.125000e-03
2.250000e-03
1.862500e-02
2.375000e-03
1.162500e-02
1.950000e-02
2.125000e-03
2.000000e-03
2.000000e-03
2.000000e-03
6.250000e-03
1.937500e-02
2.125000e-03
2.125000e-03
2.375000e-03
1.925000e-02
2.000000e-03
1.312500e-02
2.000000e-03
3.875000e-03
1.937500e-02
1.937500e-02
1.937500e-02
1.937500e-02
1.950000e-02
1.937500e-02
2.500000e-03
1.937500e-02
2.000000e-03
1.937500e-02
1.962500e-02
1.712500e-02
1.925000e-02
2.500000e-03
1.937500e-02
2.000000e-03
1.937500e-02
1.962500e-02
1.925000e-02
1.937500e-02
2.375000e-03
1.937500e-02
2.000000e-03
1.937500e-02
1.987500e-02
1.975000e-02
4.000000e-03
2.125000e-03
1.087500e-02
1.937500e-02
1.537500e-02
1.925000e-02
2.500000e-03
1.925000e-02
1.387500e-02
2.125000e-03
1.925000e-02
2.000000e-03
2.125000e-03
1.937500e-02
1.937500e-02
1.937500e-02
2.000000e-03
1.950000e-02
1.937500e-02
1.937500e-02
1.925000e-02
1.950000e-02
1.937500e-02
1.950000e-02
2.000000e-03
1.400000e-02
1.937500e-02
2.500000e-03
2.500000e-03
2.125000e-03
2.000000e-03
2.125000e-03
1.937500e-02
1.937500e-02
1.937500e-02
1.925000e-02
2.375000e-03
1.937500e-02
1.962500e-02
4.625000e-03
1.162500e-02
2.125000e-03
2.125000e-03
2.000000e-03
1.937500e-02
7.750000e-03
1.937500e-02
1.937500e-02
1.075000e-02
1.925000e-02
1.550000e-02
1.937500e-02
2.000000e-03
2.500000e-03
2.125000e-03
2.375000e-03
8.250000e-03
2.125000e-03
2.000000e-03
2.250000e-03
1.925000e-02
1.925000e-02
1.925000e-02
2.250000e-03
2.125000e-03
2.125000e-03
2.500000e-03
2.000000e-03
2.500000e-03
1.975000e-02
2.000000e-03
1.925000e-02
2.375000e-03
1.937500e-02
1.200000e-02
4.125000e-03
1.937500e-02
2.125000e-03
1.925000e-02
2.000000e-03
1.925000e-02
1.937500e-02
1.937500e-02
1.700000e-02
1.950000e-02
2.125000e-03
2.125000e-03
1.937500e-02
2.000000e-03
2.125000e-03
9.375000e-03
2.375000e-03
1.337500e-02
1.387500e-02
2.500000e-03
1.937500e-02
2.500000e-03
2.375000e-03
9.375000e-03
1.925000e-02
2.250000e-03
2.000000e-03
2.125000e-03
1.250000e-02
2.000000e-03
2.500000e-03
1.275000e-02
2.375000e-03
1.937500e-02
1.925000e-02
2.250000e-03
2.125000e-03
1.975000e-02
1.937500e-02
1.950000e-02
2.125000e-03
2.625000e-03
1.950000e-02
1.962500e-02
1.950000e-02
1.937500e-02
1.925000e-02
1.925000e-02
2.125000e-03
1.962500e-02
2.500000e-03
2.125000e-03
2.125000e-03
2.000000e-03
1.787500e-02
1.937500e-02
2.000000e-03
2.125000e-03
2.125000e-03
1.925000e-02
1.950000e-02
2.125000e-03
1.400000e-02
1.937500e-02
2.125000e-03
1.937500e-02
2.125000e-03
5.125000e-03
1.100000e-02
2.125000e-03
2.125000e-03
8.125000e-03
1.975000e-02
2.000000e-03
1.925000e-02
2.125000e-03
1.087500e-02
2.375000e-03
1.937500e-02
2.125000e-03
2.375000e-03
2.125000e-03
1.925000e-02
2.125000e-03
2.125000e-03
1.937500e-02
1.937500e-02
5.500000e-03
2.125000e-03
2.250000e-03
1.937500e-02
1.937500e-02
1.162500e-02
1.937500e-02
1.937500e-02
1.937500e-02
1.937500e-02
2.125000e-03
1.937500e-02
2.125000e-03
1.962500e-02
2.125000e-03
9.750000e-03
4.750000e-03
2.250000e-03
2.125000e-03
2.250000e-03
1.212500e-02
2.375000e-03
2.125000e-03
2.000000e-03
1.925000e-02
1.937500e-02
2.125000e-03
1.937500e-02
1.925000e-02
1.937500e-02
2.125000e-03
1.937500e-02
1.925000e-02
1.937500e-02
2.125000e-03
2.000000e-03
2.000000e-03
2.000000e-03
2.125000e-03
2.000000e-03
1.950000e-02
1.975000e-02
1.937500e-02
1.937500e-02
1.937500e-02
1.962500e-02
2.000000e-03
2.000000e-03
1.937500e-02
2.125000e-03
1.937500e-02
8.500000e-03
1.950000e-02
2.500000e-03
2.500000e-03
2.125000e-03
2.500000e-03
1.550000e-02
1.937500e-02
1.950000e-02
2.000000e-03
1.937500e-02
1.087500e-02
2.125000e-03
2.000000e-03
1.950000e-02
2.000000e-03
2.375000e-03
1.937500e-02
2.125000e-03
1.937500e-02
2.000000e-03
1.937500e-02
2.000000e-03
2.250000e-03
1.937500e-02
2.125000e-03
5.500000e-03
2.375000e-03
2.000000e-03
1.962500e-02
1.937500e-02
1.937500e-02
9.625000e-03
1.937500e-02
2.000000e-03
2.000000e-03
2.500000e-03
2.000000e-03
1.937500e-02
1.937500e-02
2.000000e-03
1.937500e-02
1.937500e-02
1.925000e-02
1.937500e-02
2.000000e-03
1.925000e-02
1.937500e-02
2.000000e-03
1.937500e-02
1.925000e-02
1.312500e-02
2.125000e-03
2.125000e-03
1.937500e-02
2.500000e-03
9.375000e-03
1.787500e-02
9.250000e-03
2.500000e-03
1.925000e-02
2.125000e-03
2.000000e-03
2.125000e-03
1.937500e-02
5.500000e-03
2.000000e-03
1.937500e-02
1.925000e-02
8.625000e-03
1.937500e-02
1.925000e-02
2.375000e-03
2.375000e-03
2.000000e-03
1.950000e-02
1.950000e-02
1.962500e-02
2.125000e-03
2.000000e-03
1.950000e-02
1.937500e-02
1.950000e-02
1.937500e-02
1.937500e-02
5.500000e-03
1.937500e-02
2.500000e-03
1.925000e-02
2.125000e-03
1.937500e-02
1.937500e-02
1.937500e-02
1.325000e-02
1.925000e-02
1.937500e-02
2.000000e-03
5.125000e-03
2.500000e-03
2.125000e-03
2.375000e-03
8.625000e-03
2.375000e-03
5.500000e-03
1.250000e-02
1.937500e-02
2.000000e-03
1.975000e-02
1.625000e-02
2.500000e-03
2.000000e-03
2.000000e-03
6.250000e-03
1.950000e-02
1.937500e-02
2.125000e-03
4.000000e-03
1.925000e-02
2.000000e-03
1.937500e-02
2.250000e-03
1.937500e-02
3.250000e-03
1.937500e-02
1.700000e-02
2.000000e-03
2.500000e-03
2.125000e-03
2.000000e-03
1.937500e-02
1.950000e-02
1.937500e-02
1.950000e-02
1.950000e-02
2.250000e-03
1.937500e-02
2.000000e-03
1.937500e-02
2.000000e-03
9.375000e-03
2.000000e-03
1.950000e-02
1.937500e-02
2.000000e-03
2.250000e-03
1.937500e-02
1.937500e-02
1.550000e-02
1.937500e-02
1.937500e-02
1.925000e-02
7.000000e-03
1.937500e-02
1.937500e-02
9.250000e-03
4.875000e-03
2.000000e-03
2.000000e-03
2.375000e-03
1.925000e-02
1.362500e-02
2.500000e-03
1.975000e-02
2.000000e-03
1.875000e-03
2.125000e-03
2.500000e-03
3.250000e-03
2.000000e-03
1.937500e-02
1.937500e-02
2.500000e-03
2.250000e-03
2.125000e-03
7.125000e-03
1.937500e-02
1.937500e-02
1.875000e-03
1.950000e-02
1.937500e-02
2.500000e-03
1.937500e-02
1.925000e-02
1.925000e-02
2.125000e-03
1.937500e-02
1.937500e-02
1.937500e-02
1.937500e-02
9.250000e-03
7.125000e-03
1.937500e-02
1.937500e-02
1.937500e-02
1.925000e-02
1.787500e-02
2.500000e-03
1.925000e-02
1.937500e-02
1.937500e-02
2.125000e-03
1.937500e-02
1.975000e-02
2.375000e-03
1.937500e-02
1.925000e-02
1.925000e-02
1.937500e-02
1.775000e-02
5.000000e-03
1.937500e-02
2.500000e-03
1.962500e-02
9.500000e-03
2.000000e-03
1.925000e-02
1.937500e-02
1.962500e-02
2.500000e-03
2.125000e-03
1.350000e-02
2.250000e-03
2.125000e-03
1.350000e-02
1.937500e-02
1.937500e-02
1.925000e-02
1.975000e-02
2.375000e-03
1.950000e-02
1.562500e-02
1.925000e-02
5.375000e-03
1.937500e-02
2.000000e-03
2.125000e-03
1.937500e-02
1.925000e-02
2.500000e-03
1.175000e-02
2.125000e-03
2.375000e-03
2.125000e-03
1.937500e-02
2.125000e-03
7.125000e-03
2.375000e-03
1.937500e-02
2.125000e-03
1.775000e-02
2.375000e-03
1.937500e-02
1.937500e-02
1.512500e-02
1.937500e-02
1.937500e-02
1.700000e-02
1.925000e-02
2.625000e-03
1.937500e-02
8.625000e-03
1.925000e-02
1.975000e-02
1.050000e-02
1.975000e-02
1.625000e-02
1.937500e-02
2.500000e-03
2.125000e-03
2.625000e-03
4.000000e-03
2.375000e-03
1.925000e-02
2.375000e-03
2.000000e-03
1.937500e-02
1.000000e-02
6.750000e-03
2.125000e-03
2.500000e-03
2.500000e-03
1.537500e-02
1.162500e-02
4.875000e-03
1.937500e-02
1.962500e-02
2.875000e-03
1.925000e-02
1.512500e-02
1.925000e-02
2.500000e-03
2.375000e-03
7.000000e-03
9.375000e-03
2.125000e-03
2.375000e-03
7.750000e-03
2.125000e-03
2.625000e-03
2.125000e-03
1.862500e-02
2.000000e-03
2.500000e-03
1.950000e-02
1.937500e-02
1.975000e-02
1.937500e-02
2.500000e-03
1.925000e-02
1.937500e-02
1.937500e-02
2.125000e-03
1.925000e-02
2.125000e-03
2.125000e-03
1.925000e-02
1.937500e-02
1.925000e-02
2.000000e-03
2.125000e-03
2.125000e-03
1.937500e-02
1.700000e-02
2.250000e-03
2.500000e-03
2.500000e-03
2.125000e-03
2.125000e-03
1.087500e-02
2.125000e-03
2.500000e-03
1.925000e-02
1.925000e-02
2.250000e-03
5.250000e-03
1.775000e-02
1.937500e-02
3.250000e-03
1.550000e-02
1.937500e-02
2.000000e-03
2.125000e-03
1.937500e-02
2.375000e-03
1.937500e-02
2.250000e-03
1.937500e-02
1.975000e-02
1.937500e-02
2.250000e-03
2.125000e-03
2.125000e-03
2.125000e-03
1.925000e-02
2.375000e-03
2.125000e-03
1.937500e-02
2.125000e-03
1.937500e-02
4.000000e-03
2.125000e-03
2.125000e-03
5.875000e-03
2.125000e-03
1.625000e-02
2.500000e-03
2.250000e-03
1.675000e-02
2.375000e-03
1.937500e-02
2.125000e-03
2.125000e-03
1.912500e-02
1.950000e-02
1.925000e-02
1.937500e-02
2.250000e-03
1.612500e-02
1.937500e-02
2.250000e-03
1.937500e-02
5.500000e-03
2.125000e-03
2.500000e-03
2.250000e-03
1.937500e-02
1.975000e-02
9.375000e-03
1.925000e-02
2.250000e-03
1.925000e-02
1.925000e-02
1.925000e-02
1.937500e-02
1.937500e-02
1.937500e-02
2.125000e-03
2.125000e-03
1.962500e-02
2.250000e-03
2.000000e-03
1.925000e-02
2.500000e-03
2.125000e-03
2.250000e-03
1.925000e-02
2.125000e-03
1.925000e-02
1.925000e-02
1.937500e-02
2.000000e-03
8.250000e-03
2.375000e-03
1.937500e-02
2.125000e-03
1.025000e-02
2.250000e-03
1.937500e-02
2.250000e-03
1.925000e-02
2.000000e-03
2.125000e-03
1.812500e-02
5.625000e-03
2.125000e-03
1.937500e-02
2.125000e-03
1.937500e-02
1.787500e-02
2.250000e-03
2.125000e-03
1.925000e-02
2.375000e-03
1.937500e-02
2.000000e-03
2.500000e-03
1.937500e-02
2.250000e-03
2.125000e-03
1.925000e-02
2.000000e-03
1.912500e-02
1.950000e-02
2.500000e-03
2.125000e-03
1.925000e-02
1.850000e-02
1.925000e-02
1.937500e-02
2.125000e-03
9.375000e-03
2.000000e-03
1.937500e-02
2.500000e-03
1.937500e-02
2.125000e-03
6.750000e-03
2.500000e-03
1.887500e-02
6.375000e-03
2.000000e-03
2.125000e-03
4.000000e-03
2.000000e-03
1.637500e-02
1.925000e-02
2.000000e-03
1.937500e-02
1.925000e-02
1.925000e-02
2.250000e-03
1.925000e-02
1.925000e-02
1.925000e-02
2.125000e-03
1.912500e-02
1.937500e-02
2.125000e-03
2.000000e-03
1.937500e-02
2.000000e-03
2.125000e-03
1.925000e-02
1.850000e-02
2.125000e-03
1.925000e-02
1.937500e-02
7.875000e-03
2.250000e-03
1.712500e-02
1.925000e-02
4.750000e-03
1.937500e-02
2.125000e-03
1.925000e-02
2.500000e-03
1.575000e-02
1.925000e-02
1.937500e-02
1.787500e-02
7.500000e-03
2.125000e-03
2.125000e-03
1.937500e-02
2.500000e-03
1.937500e-02
2.250000e-03
2.500000e-03
1.550000e-02
1.925000e-02
2.250000e-03
2.500000e-03
2.125000e-03
2.125000e-03
1.162500e-02
2.125000e-03
1.937500e-02
2.000000e-03
1.625000e-02
8.250000e-03
1.937500e-02
2.250000e-03
1.925000e-02
8.625000e-03
1.937500e-02
1.937500e-02
2.000000e-03
1.700000e-02
1.925000e-02
1.937500e-02
1.925000e-02
1.550000e-02
2.125000e-03
1.937500e-02
2.500000e-03
2.125000e-03
1.925000e-02
1.962500e-02
2.125000e-03
1.962500e-02
1.875000e-03
1.925000e-02
1.925000e-02
2.500000e-03
8.750000e-03
1.387500e-02
5.500000e-03
2.125000e-03
1.925000e-02
1.937500e-02
2.375000e-03
2.125000e-03
1.925000e-02
2.500000e-03
1.937500e-02
3.375000e-03
1.937500e-02
1.950000e-02
2.000000e-03
1.925000e-02
1.237500e-02
1.925000e-02
1.387500e-02
1.937500e-02
2.250000e-03
1.237500e-02
2.250000e-03
2.125000e-03
2.125000e-03
1.825000e-02
2.375000e-03
8.625000e-03
2.250000e-03
1.925000e-02
2.000000e-03
2.375000e-03
1.937500e-02
7.500000e-03
2.250000e-03
2.125000e-03
1.925000e-02
2.125000e-03
1.925000e-02
4.000000e-03
2.125000e-03
1.937500e-02
2.125000e-03
2.125000e-03
1.962500e-02
2.500000e-03
2.125000e-03
1.937500e-02
1.962500e-02
1.925000e-02
1.737500e-02
7.125000e-03
1.937500e-02
1.937500e-02
1.962500e-02
1.937500e-02
1.925000e-02
1.475000e-02
2.125000e-03
2.125000e-03
1.925000e-02
5.500000e-03
1.925000e-02
1.937500e-02
1.925000e-02
1.937500e-02
2.500000e-03
1.937500e-02
9.500000e-03
1.925000e-02
1.925000e-02
1.962500e-02
1.387500e-02
2.125000e-03
2.250000e-03
2.500000e-03
1.925000e-02
1.937500e-02
1.937500e-02
1.812500e-02
2.125000e-03
1.937500e-02
1.775000e-02
1.925000e-02
2.625000e-03
1.975000e-02
1.925000e-02
2.125000e-03
1.625000e-02
1.250000e-02
1.962500e-02
2.250000e-03
2.250000e-03
1.937500e-02
2.125000e-03
1.925000e-02
1.925000e-02
1.925000e-02
1.925000e-02
1.962500e-02
2.375000e-03
1.937500e-02
1.925000e-02
1.962500e-02
1.925000e-02
2.125000e-03
1.925000e-02
1.837500e-02
1.937500e-02
2.250000e-03
1.475000e-02
2.500000e-03
1.925000e-02
1.312500e-02
2.250000e-03
2.250000e-03
2.125000e-03
2.125000e-03
2.500000e-03
2.500000e-03
1.850000e-02
2.250000e-03
2.000000e-03
2.625000e-03
2.500000e-03
2.500000e-03
2.250000e-03
1.937500e-02
1.962500e-02
2.250000e-03
2.500000e-03
1.237500e-02
1.425000e-02
1.962500e-02
2.250000e-03
1.925000e-02
1.962500e-02
2.500000e-03
1.925000e-02
1.925000e-02
1.925000e-02
1.925000e-02
1.050000e-02
2.250000e-03
1.937500e-02
1.925000e-02
2.125000e-03
2.125000e-03
1.137500e-02
7.500000e-03
2.500000e-03
1.087500e-02
2.125000e-03
1.925000e-02
2.125000e-03
2.125000e-03
1.237500e-02
1.962500e-02
2.500000e-03
1.312500e-02
2.625000e-03
2.125000e-03
1.937500e-02
2.500000e-03
1.925000e-02
2.125000e-03
1.637500e-02
2.500000e-03
2.625000e-03
1.925000e-02
1.937500e-02
1.925000e-02
2.250000e-03
2.500000e-03
5.625000e-03
2.125000e-03
2.250000e-03
6.375000e-03
1.962500e-02
1.925000e-02
2.500000e-03
1.925000e-02
1.350000e-02
1.962500e-02
2.125000e-03
2.500000e-03
2.125000e-03
1.012500e-02
2.500000e-03
3.875000e-03
8.750000e-03
2.250000e-03
2.500000e-03
2.125000e-03
1.975000e-02
2.125000e-03
5.625000e-03
2.625000e-03
1.925000e-02
4.125000e-03
2.250000e-03
2.500000e-03
2.500000e-03
1.312500e-02
2.500000e-03
1.925000e-02
1.400000e-02
2.125000e-03
1.925000e-02
2.125000e-03
2.250000e-03
2.250000e-03
9.375000e-03
1.925000e-02
1.925000e-02
1.925000e-02
2.500000e-03
2.000000e-03
2.125000e-03
1.937500e-02
1.975000e-02
1.962500e-02
2.250000e-03
2.250000e-03
3.375000e-03
1.925000e-02
2.250000e-03
1.925000e-02
2.125000e-03
1.425000e-02
2.125000e-03
1.462500e-02
1.925000e-02
2.125000e-03
2.250000e-03
1.937500e-02
6.375000e-03
1.950000e-02
1.925000e-02
2.625000e-03
2.500000e-03
2.500000e-03
1.925000e-02
2.250000e-03
1.912500e-02
1.925000e-02
2.125000e-03
1.937500e-02
7.875000e-03
1.937500e-02
2.000000e-03
2.250000e-03
1.937500e-02
1.937500e-02
1.137500e-02
3.250000e-03
1.925000e-02
2.250000e-03
1.925000e-02
2.125000e-03
2.125000e-03
1.937500e-02
1.912500e-02
1.975000e-02
2.250000e-03
9.375000e-03
2.375000e-03
1.925000e-02
7.875000e-03
2.125000e-03
2.125000e-03
1.925000e-02
1.925000e-02
7.125000e-03
1.925000e-02
2.125000e-03
1.937500e-02
8.750000e-03
2.500000e-03
1.925000e-02
2.125000e-03
2.250000e-03
2.625000e-03
1.925000e-02
2.250000e-03
2.250000e-03
2.500000e-03
1.275000e-02
1.937500e-02
2.250000e-03
2.125000e-03
1.700000e-02
2.250000e-03
2.375000e-03
1.962500e-02
1.925000e-02
1.100000e-02
1.925000e-02
2.125000e-03
1.175000e-02
1.925000e-02
2.250000e-03
1.012500e-02
1.625000e-02
2.125000e-03
1.925000e-02
1.925000e-02
1.937500e-02
2.125000e-03
1.925000e-02
8.625000e-03
8.250000e-03
2.625000e-03
2.125000e-03
2.125000e-03
2.500000e-03
2.625000e-03
2.125000e-03
1.925000e-02
1.250000e-02
1.925000e-02
1.925000e-02
1.387500e-02
1.937500e-02
1.362500e-02
2.250000e-03
2.125000e-03
1.425000e-02
1.625000e-02
1.925000e-02
1.925000e-02
1.950000e-02
2.500000e-03
1.925000e-02
2.000000e-03
1.937500e-02
1.937500e-02
2.125000e-03
1.075000e-02
2.500000e-03
2.125000e-03
1.950000e-02
2.625000e-03
1.700000e-02
9.375000e-03
2.000000e-03
2.500000e-03
1.225000e-02
2.000000e-03
2.125000e-03
2.500000e-03
1.925000e-02
1.937500e-02
1.550000e-02
1.950000e-02
1.937500e-02
1.925000e-02
5.500000e-03
8.625000e-03
1.775000e-02
2.625000e-03
1.937500e-02
2.625000e-03
2.250000e-03
8.625000e-03
2.000000e-03
9.250000e-03
2.500000e-03
1.962500e-02
1.087500e-02
2.250000e-03
1.925000e-02
2.250000e-03
1.937500e-02
1.937500e-02
1.925000e-02
4.750000e-03
2.000000e-03
1.937500e-02
2.500000e-03
1.937500e-02
1.912500e-02
1.937500e-02
8.250000e-03
2.625000e-03
5.500000e-03
1.162500e-02
2.125000e-03
1.937500e-02
1.937500e-02
1.925000e-02
1.925000e-02
2.125000e-03
1.762500e-02
1.275000e-02
2.125000e-03
1.962500e-02
1.925000e-02
1.937500e-02
1.937500e-02
1.937500e-02
6.375000e-03
1.937500e-02
2.625000e-03
2.500000e-03
2.125000e-03
1.912500e-02
2.125000e-03
2.125000e-03
1.937500e-02
2.125000e-03
2.500000e-03
2.500000e-03
1.937500e-02
1.975000e-02
2.250000e-03
1.162500e-02
2.500000e-03
2.125000e-03
1.937500e-02
4.125000e-03
2.250000e-03
1.925000e-02
1.925000e-02
2.125000e-03
2.125000e-03
6.375000e-03
1.937500e-02
2.125000e-03
1.937500e-02
1.925000e-02
1.925000e-02
2.000000e-03
2.500000e-03
2.250000e-03
2.250000e-03
2.125000e-03
1.937500e-02
2.500000e-03
2.125000e-03
1.950000e-02
5.625000e-03
1.850000e-02
2.250000e-03
1.925000e-02
2.500000e-03
2.125000e-03
1.937500e-02
2.625000e-03
1.925000e-02
1.925000e-02
1.962500e-02
2.250000e-03
2.625000e-03
2.125000e-03
1.937500e-02
2.250000e-03
1.175000e-02
1.937500e-02
2.500000e-03
2.500000e-03
1.925000e-02
1.937500e-02
1.937500e-02
2.125000e-03
6.375000e-03
2.500000e-03
2.500000e-03
2.500000e-03
2.625000e-03
2.250000e-03
1.925000e-02
1.937500e-02
2.375000e-03
9.250000e-03
2.125000e-03
1.850000e-02
1.012500e-02
2.125000e-03
2.125000e-03
2.125000e-03
1.925000e-02
1.637500e-02
1.925000e-02
1.937500e-02
1.937500e-02
1.925000e-02
2.250000e-03
2.500000e-03
1.825000e-02
1.937500e-02
7.125000e-03
1.937500e-02
1.987500e-02
1.925000e-02
1.925000e-02
2.125000e-03
1.937500e-02
2.250000e-03
2.250000e-03
1.925000e-02
1.925000e-02
1.125000e-02
2.375000e-03
1.937500e-02
1.250000e-02
4.875000e-03
2.125000e-03
2.125000e-03
4.125000e-03
2.625000e-03
2.500000e-03
1.925000e-02
2.500000e-03
2.125000e-03
2.125000e-03
2.125000e-03
2.250000e-03
1.925000e-02
9.750000e-03
2.500000e-03
2.500000e-03
9.000000e-03
1.912500e-02
1.937500e-02
2.125000e-03
1.862500e-02
5.500000e-03
1.925000e-02
2.500000e-03
1.937500e-02
2.125000e-03
1.925000e-02
7.125000e-03
1.937500e-02
2.250000e-03
1.925000e-02
2.500000e-03
1.925000e-02
1.937500e-02
2.500000e-03
1.962500e-02
1.012500e-02
1.975000e-02
2.125000e-03
1.087500e-02
2.250000e-03
1.937500e-02
2.125000e-03
2.125000e-03
1.950000e-02
1.662500e-02
1.925000e-02
1.075000e-02
2.250000e-03
1.937500e-02
1.437500e-02
1.937500e-02
2.125000e-03
1.162500e-02
2.500000e-03
1.925000e-02
2.500000e-03
2.250000e-03
2.250000e-03
7.250000e-03
1.937500e-02
6.375000e-03
1.087500e-02
1.925000e-02
2.250000e-03
1.925000e-02
1.862500e-02
8.000000e-03
1.912500e-02
1.925000e-02
8.500000e-03
1.975000e-02
1.900000e-02
1.937500e-02
1.937500e-02
1.550000e-02
2.250000e-03
2.250000e-03
2.125000e-03
1.962500e-02
2.000000e-03
2.625000e-03
3.625000e-03
1.937500e-02
2.125000e-03
2.125000e-03
1.962500e-02
2.625000e-03
2.500000e-03
1.925000e-02
1.950000e-02
1.925000e-02
1.925000e-02
2.500000e-03
2.250000e-03
2.250000e-03
2.125000e-03
1.937500e-02
2.250000e-03
2.125000e-03
2.125000e-03
2.250000e-03
1.925000e-02
2.250000e-03
2.250000e-03
2.125000e-03
2.250000e-03
1.100000e-02
1.925000e-02
4.750000e-03
1.912500e-02
1.925000e-02
2.250000e-03
1.925000e-02
1.925000e-02
2.500000e-03
2.500000e-03
2.500000e-03
1.937500e-02
1.200000e-02
2.500000e-03
2.500000e-03
1.150000e-02
1.937500e-02
4.000000e-03
2.500000e-03
1.325000e-02
2.500000e-03
2.125000e-03
2.250000e-03
2.125000e-03
2.250000e-03
1.962500e-02
2.250000e-03
2.250000e-03
2.375000e-03
2.125000e-03
2.125000e-03
1.625000e-02
2.125000e-03
1.975000e-02
1.537500e-02
1.100000e-02
2.125000e-03
2.125000e-03
1.937500e-02
2.125000e-03
2.125000e-03
2.250000e-03
2.250000e-03
1.950000e-02
1.550000e-02
2.000000e-03
2.250000e-03
1.850000e-02
1.937500e-02
2.000000e-03
1.962500e-02
2.125000e-03
1.087500e-02
1.937500e-02
2.500000e-03
1.012500e-02
2.500000e-03
5.125000e-03
1.925000e-02
2.250000e-03
1.975000e-02
2.125000e-03
1.937500e-02
2.375000e-03
2.500000e-03
2.500000e-03
9.375000e-03
1.937500e-02
2.125000e-03
1.925000e-02
1.925000e-02
1.925000e-02
2.125000e-03
1.937500e-02
1.937500e-02
1.937500e-02
1.925000e-02
1.925000e-02
1.687500e-02
2.125000e-03
2.000000e-03
2.250000e-03
2.125000e-03
1.937500e-02
2.625000e-03
1.937500e-02
1.937500e-02
1.925000e-02
1.925000e-02
2.250000e-03
1.937500e-02
1.325000e-02
1.925000e-02
1.650000e-02
1.925000e-02
2.125000e-03
1.925000e-02
1.925000e-02
1.950000e-02
1.087500e-02
1.550000e-02
1.937500e-02
1.237500e-02
1.937500e-02
1.925000e-02
2.625000e-03
2.500000e-03
1.937500e-02
1.937500e-02
1.937500e-02
1.962500e-02
2.125000e-03
2.250000e-03
2.250000e-03
2.250000e-03
2.125000e-03
1.925000e-02
2.500000e-03
2.125000e-03
1.025000e-02
2.125000e-03
1.312500e-02
1.100000e-02
2.125000e-03
2.125000e-03
2.125000e-03
5.625000e-03
2.125000e-03
2.125000e-03
2.250000e-03
1.925000e-02
1.937500e-02
6.250000e-03
8.625000e-03
2.125000e-03
2.125000e-03
1.937500e-02
2.125000e-03
3.250000e-03
2.125000e-03
2.250000e-03
2.625000e-03
2.125000e-03
2.000000e-03
1.937500e-02
2.250000e-03
2.125000e-03
1.012500e-02
1.937500e-02
3.375000e-03
1.925000e-02
2.125000e-03
2.250000e-03
1.925000e-02
2.500000e-03
2.125000e-03
1.512500e-02
2.375000e-03
2.500000e-03
1.912500e-02
2.500000e-03
2.500000e-03
2.625000e-03
2.500000e-03
2.125000e-03
1.925000e-02
1.925000e-02
1.937500e-02
2.500000e-03
1.925000e-02
2.625000e-03
2.250000e-03
1.950000e-02
2.250000e-03
2.125000e-03
1.937500e-02
2.125000e-03
2.125000e-03
4.000000e-03
1.937500e-02
1.937500e-02
1.937500e-02
2.500000e-03
2.250000e-03
2.250000e-03
1.937500e-02
1.937500e-02
2.500000e-03
2.125000e-03
1.837500e-02
2.125000e-03
2.250000e-03
2.250000e-03
1.925000e-02
4.500000e-03
1.737500e-02
1.937500e-02
1.925000e-02
2.125000e-03
2.125000e-03
1.925000e-02
1.925000e-02
1.937500e-02
1.925000e-02
1.937500e-02
1.937500e-02
3.250000e-03
2.250000e-03
2.125000e-03
2.125000e-03
1.925000e-02
1.937500e-02
4.000000e-03
1.937500e-02
1.550000e-02
2.125000e-03
1.237500e-02
1.937500e-02
2.500000e-03
1.862500e-02
2.250000e-03
1.937500e-02
2.125000e-03
1.937500e-02
1.925000e-02
2.250000e-03
1.937500e-02
2.625000e-03
2.250000e-03
1.925000e-02
2.125000e-03
1.937500e-02
2.125000e-03
3.250000e-03
2.125000e-03
1.950000e-02
1.950000e-02
1.937500e-02
1.475000e-02
1.937500e-02
2.500000e-03
2.500000e-03
2.500000e-03
2.125000e-03
2.250000e-03
1.937500e-02
8.375000e-03
2.125000e-03
7.125000e-03
2.250000e-03
1.625000e-02
2.500000e-03
1.937500e-02
2.125000e-03
2.125000e-03
7.125000e-03
1.887500e-02
1.937500e-02
2.125000e-03
1.925000e-02
1.975000e-02
2.125000e-03
2.500000e-03
2.125000e-03
6.375000e-03
2.125000e-03
2.500000e-03
1.937500e-02
2.125000e-03
2.125000e-03
1.950000e-02
1.850000e-02
1.975000e-02
1.937500e-02
1.925000e-02
2.500000e-03
1.937500e-02
2.125000e-03
1.437500e-02
3.125000e-03
1.937500e-02
2.250000e-03
2.500000e-03
1.925000e-02
2.125000e-03
4.750000e-03
1.962500e-02
1.937500e-02
1.937500e-02
1.975000e-02
8.625000e-03
1.925000e-02
1.937500e-02
8.500000e-03
1.925000e-02
1.937500e-02
2.125000e-03
2.125000e-03
2.125000e-03
2.375000e-03
4.125000e-03
1.937500e-02
1.937500e-02
1.937500e-02
2.125000e-03
1.937500e-02
2.250000e-03
2.375000e-03
1.937500e-02
1.962500e-02
1.937500e-02
1.937500e-02
2.125000e-03
1.400000e-02
1.925000e-02
1.937500e-02
2.500000e-03
1.937500e-02
1.925000e-02
1.937500e-02
1.950000e-02
2.500000e-03
1.925000e-02
1.912500e-02
2.125000e-03
2.125000e-03
2.125000e-03
2.125000e-03
2.125000e-03
2.125000e-03
1.937500e-02
1.937500e-02
1.937500e-02
1.025000e-02
2.000000e-03
1.900000e-02
2.625000e-03
2.125000e-03
2.500000e-03
2.750000e-03
2.125000e-03
1.962500e-02
1.937500e-02
2.500000e-03
2.250000e-03
6.750000e-03
2.125000e-03
1.475000e-02
2.125000e-03
3.750000e-03
2.000000e-03
2.000000e-03
2.000000e-03
1.937500e-02
1.937500e-02
2.000000e-03
1.925000e-02
2.125000e-03
1.937500e-02
1.975000e-02
2.250000e-03
2.375000e-03
1.812500e-02
1.975000e-02
2.125000e-03
1.550000e-02
1.925000e-02
1.937500e-02
1.925000e-02
2.500000e-03
2.125000e-03
2.000000e-03
1.287500e-02
2.250000e-03
1.775000e-02
1.937500e-02
1.950000e-02
1.937500e-02
1.550000e-02
2.125000e-03
1.250000e-02
2.500000e-03
2.500000e-03
2.125000e-03
1.925000e-02
2.625000e-03
2.125000e-03
1.400000e-02
2.125000e-03
9.250000e-03
1.625000e-02
2.125000e-03
9.375000e-03
2.125000e-03
2.500000e-03
1.937500e-02
2.125000e-03
1.962500e-02
1.787500e-02
1.925000e-02
2.500000e-03
2.125000e-03
1.937500e-02
6.375000e-03
1.937500e-02
2.375000e-03
1.962500e-02
2.125000e-03
1.937500e-02
1.475000e-02
1.937500e-02
2.250000e-03
2.625000e-03
2.375000e-03
2.125000e-03
2.125000e-03
1.125000e-02
5.625000e-03
1.887500e-02
2.250000e-03
2.250000e-03
1.925000e-02
7.125000e-03
1.950000e-02
2.000000e-03
7.000000e-03
2.125000e-03
2.125000e-03
2.125000e-03
2.375000e-03
1.862500e-02
2.250000e-03
2.500000e-03
1.937500e-02
1.937500e-02
2.875000e-03
1.625000e-02
2.125000e-03
1.937500e-02
2.125000e-03
1.237500e-02
2.500000e-03
1.825000e-02
1.925000e-02
7.125000e-03
1.937500e-02
1.937500e-02
2.000000e-03
2.125000e-03
1.925000e-02
2.125000e-03
2.500000e-03
2.000000e-03
1.937500e-02
2.125000e-03
1.937500e-02
1.937500e-02
2.250000e-03
1.975000e-02
1.750000e-02
1.925000e-02
2.000000e-03
1.937500e-02
4.750000e-03
1.487500e-02
2.125000e-03
2.250000e-03
1.250000e-02
1.937500e-02
1.925000e-02
2.375000e-03
1.550000e-02
1.937500e-02
2.250000e-03
1.387500e-02
1.937500e-02
1.937500e-02
1.937500e-02
3.250000e-03
1.412500e-02
2.500000e-03
1.925000e-02
2.250000e-03
1.937500e-02
2.500000e-03
2.125000e-03
2.250000e-03
2.500000e-03
2.250000e-03
1.937500e-02
2.125000e-03
1.937500e-02
1.937500e-02
2.000000e-03
2.125000e-03
1.937500e-02
1.925000e-02
2.250000e-03
1.937500e-02
2.125000e-03
2.125000e-03
1.925000e-02
2.500000e-03
1.937500e-02
1.950000e-02
2.500000e-03
1.937500e-02
1.937500e-02
4.125000e-03
1.937500e-02
1.937500e-02
1.925000e-02
2.500000e-03
2.500000e-03
6.375000e-03
1.937500e-02
1.937500e-02
1.950000e-02
2.000000e-03
2.125000e-03
2.500000e-03
1.937500e-02
2.125000e-03
8.000000e-03
2.375000e-03
4.750000e-03
1.937500e-02
1.937500e-02
5.500000e-03
2.375000e-03
1.625000e-02
1.937500e-02
1.862500e-02
1.962500e-02
1.937500e-02
2.375000e-03
1.937500e-02
2.125000e-03
1.012500e-02
1.937500e-02
2.000000e-03
1.950000e-02
1.950000e-02
9.750000e-03
1.937500e-02
1.937500e-02
1.925000e-02
1.937500e-02
1.937500e-02
5.625000e-03
1.937500e-02
1.412500e-02
2.500000e-03
1.650000e-02
1.425000e-02
2.125000e-03
1.950000e-02
1.937500e-02
2.250000e-03
1.937500e-02
1.937500e-02
2.125000e-03
2.125000e-03
1.425000e-02
2.125000e-03
2.125000e-03
2.125000e-03
2.500000e-03
2.000000e-03
2.500000e-03
1.937500e-02
2.125000e-03
1.937500e-02
5.500000e-03
2.500000e-03
2.125000e-03
1.987500e-02
2.250000e-03
1.862500e-02
2.125000e-03
2.375000e-03
1.937500e-02
1.950000e-02
1.925000e-02
1.937500e-02
7.000000e-03
1.012500e-02
1.937500e-02
1.937500e-02
1.012500e-02
2.625000e-03
2.125000e-03
1.937500e-02
1.937500e-02
1.937500e-02
1.937500e-02
1.937500e-02
1.925000e-02
1.975000e-02
2.250000e-03
1.937500e-02
2.125000e-03
1.962500e-02
2.500000e-03
1.937500e-02
1.950000e-02
1.975000e-02
2.125000e-03
1.937500e-02
1.975000e-02
1.937500e-02
2.125000e-03
1.325000e-02
2.375000e-03
1.925000e-02
1.325000e-02
2.125000e-03
1.937500e-02
1.937500e-02
1.937500e-02
1.937500e-02
2.500000e-03
2.000000e-03
1.325000e-02
1.925000e-02
2.500000e-03
1.937500e-02
1.975000e-02
1.925000e-02
2.125000e-03
2.125000e-03
2.125000e-03
1.937500e-02
2.125000e-03
1.937500e-02
1.987500e-02
2.125000e-03
2.375000e-03
2.125000e-03
1.925000e-02
2.000000e-03
1.237500e-02
2.250000e-03
1.950000e-02
1.925000e-02
1.975000e-02
1.937500e-02
2.125000e-03
1.937500e-02
2.125000e-03
1.937500e-02
3.250000e-03
1.975000e-02
1.950000e-02
1.950000e-02
2.500000e-03
1.937500e-02
1.925000e-02
2.500000e-03
1.787500e-02
2.625000e-03
1.087500e-02
1.937500e-02
4.000000e-03
1.975000e-02
1.937500e-02
1.975000e-02
1.937500e-02
2.000000e-03
2.125000e-03
1.937500e-02
2.125000e-03
2.125000e-03
2.125000e-03
1.937500e-02
2.000000e-03
2.625000e-03
1.862500e-02
5.625000e-03
2.500000e-03
1.812500e-02
2.500000e-03
2.125000e-03
2.500000e-03
2.125000e-03
6.000000e-03
2.250000e-03
1.950000e-02
2.000000e-03
1.937500e-02
1.937500e-02
2.125000e-03
2.125000e-03
2.125000e-03
2.375000e-03
2.125000e-03
1.250000e-02
2.125000e-03
1.950000e-02
3.500000e-03
9.375000e-03
1.937500e-02
1.937500e-02
1.937500e-02
1.925000e-02
1.937500e-02
1.925000e-02
2.000000e-03
1.937500e-02
2.125000e-03
1.862500e-02
1.937500e-02
8.125000e-03
1.937500e-02
1.937500e-02
1.937500e-02
2.000000e-03
2.125000e-03
4.375000e-03
2.125000e-03
1.937500e-02
4.875000e-03
1.825000e-02
1.962500e-02
1.950000e-02
1.937500e-02
2.125000e-03
5.625000e-03
1.950000e-02
2.125000e-03
2.500000e-03
1.937500e-02
1.937500e-02
1.925000e-02
2.250000e-03
2.125000e-03
1.925000e-02
1.937500e-02
1.937500e-02
2.000000e-03
1.937500e-02
2.000000e-03
7.125000e-03
2.125000e-03
1.937500e-02
2.000000e-03
1.937500e-02
2.500000e-03
1.012500e-02
1.937500e-02
1.950000e-02
8.250000e-03
2.125000e-03
2.625000e-03
1.950000e-02
2.500000e-03
6.375000e-03
2.500000e-03
1.937500e-02
1.937500e-02
2.125000e-03
1.937500e-02
7.125000e-03
2.125000e-03
2.125000e-03
1.262500e-02
2.125000e-03
2.125000e-03
1.787500e-02
4.375000e-03
2.125000e-03
1.937500e-02
1.937500e-02
2.500000e-03
1.962500e-02
2.000000e-03
1.937500e-02
2.125000e-03
1.937500e-02
1.700000e-02
8.625000e-03
2.000000e-03
2.000000e-03
1.950000e-02
2.000000e-03
2.500000e-03
2.000000e-03
2.125000e-03
1.937500e-02
2.125000e-03
2.250000e-03
7.875000e-03
1.937500e-02
2.500000e-03
1.925000e-02
2.625000e-03
2.125000e-03
1.937500e-02
2.500000e-03
2.500000e-03
1.937500e-02
1.937500e-02
2.000000e-03
1.925000e-02
2.000000e-03
1.175000e-02
2.250000e-03
2.375000e-03
2.125000e-03
2.000000e-03
1.937500e-02
1.100000e-02
2.500000e-03
2.250000e-03
2.500000e-03
1.937500e-02
1.950000e-02
2.125000e-03
2.500000e-03
1.937500e-02
1.212500e-02
1.950000e-02
1.937500e-02
2.375000e-03
1.937500e-02
2.500000e-03
2.125000e-03
1.937500e-02
2.000000e-03
1.950000e-02
1.962500e-02
2.125000e-03
1.937500e-02
7.125000e-03
1.025000e-02
1.937500e-02
2.125000e-03
2.125000e-03
1.937500e-02
2.125000e-03
2.125000e-03
2.125000e-03
2.125000e-03
5.000000e-03
1.862500e-02
9.250000e-03
1.950000e-02
1.937500e-02
1.950000e-02
1.937500e-02
1.937500e-02
1.975000e-02
2.375000e-03
2.250000e-03
2.125000e-03
1.937500e-02
1.412500e-02
2.500000e-03
2.125000e-03
2.125000e-03
1.950000e-02
1.937500e-02
1.937500e-02
1.800000e-02
2.375000e-03
1.937500e-02
2.125000e-03
3.875000e-03
1.937500e-02
1.937500e-02
1.937500e-02
1.937500e-02
1.862500e-02
2.125000e-03
1.987500e-02
1.937500e-02
1.925000e-02
2.500000e-03
2.125000e-03
6.250000e-03
2.000000e-03
2.500000e-03
1.950000e-02
2.000000e-03
1.712500e-02
1.950000e-02
1.950000e-02
2.125000e-03
1.937500e-02
1.937500e-02
1.562500e-02
2.125000e-03
2.000000e-03
1.937500e-02
1.987500e-02
2.125000e-03
1.950000e-02
1.937500e-02
1.950000e-02
1.987500e-02
7.500000e-03
2.125000e-03
1.925000e-02
2.125000e-03
1.037500e-02
2.125000e-03
1.950000e-02
2.500000e-03
1.725000e-02
3.625000e-03
1.950000e-02
1.937500e-02
2.875000e-03
1.925000e-02
1.937500e-02
1.950000e-02
2.125000e-03
1.487500e-02
1.937500e-02
2.125000e-03
1.937500e-02
1.950000e-02
2.000000e-03
1.950000e-02
1.950000e-02
1.925000e-02
2.500000e-03
2.125000e-03
2.125000e-03
1.650000e-02
2.250000e-03
2.125000e-03
2.000000e-03
2.000000e-03
1.937500e-02
1.475000e-02
1.937500e-02
1.625000e-02
9.250000e-03
1.937500e-02
2.250000e-03
1.937500e-02
2.000000e-03
1.787500e-02
1.950000e-02
1.925000e-02
1.975000e-02
1.937500e-02
2.500000e-03
2.125000e-03
2.125000e-03
2.625000e-03
1.775000e-02
2.125000e-03
2.125000e-03
2.500000e-03
2.125000e-03
1.975000e-02
1.937500e-02
1.950000e-02
1.975000e-02
2.250000e-03
2.375000e-03
5.750000e-03
1.950000e-02
1.075000e-02
2.375000e-03
2.125000e-03
2.250000e-03
2.125000e-03
2.500000e-03
1.125000e-02
1.975000e-02
1.937500e-02
1.937500e-02
4.750000e-03
1.862500e-02
1.950000e-02
7.750000e-03
1.937500e-02
2.500000e-03
1.950000e-02
2.125000e-03
1.937500e-02
1.937500e-02
1.950000e-02
2.125000e-03
1.937500e-02
2.375000e-03
1.975000e-02
1.937500e-02
1.912500e-02
2.125000e-03
2.000000e-03
1.625000e-02
2.500000e-03
2.500000e-03
2.125000e-03
2.000000e-03
2.500000e-03
1.450000e-02
2.250000e-03
2.250000e-03
2.500000e-03
1.875000e-03
2.000000e-03
2.000000e-03
3.625000e-03
2.125000e-03
2.250000e-03
2.375000e-03
1.937500e-02
1.325000e-02
2.000000e-03
1.800000e-02
1.250000e-02
1.937500e-02
2.125000e-03
2.125000e-03
1.950000e-02
1.937500e-02
1.012500e-02
4.875000e-03
2.000000e-03
2.500000e-03
1.950000e-02
1.937500e-02
8.625000e-03
6.250000e-03
1.925000e-02
2.125000e-03
7.125000e-03
2.000000e-03
2.125000e-03
1.950000e-02
1.512500e-02
2.500000e-03
1.950000e-02
2.375000e-03
2.125000e-03
1.250000e-02
2.500000e-03
2.500000e-03
1.325000e-02
2.500000e-03
2.500000e-03
1.412500e-02
2.125000e-03
3.625000e-03
2.500000e-03
2.000000e-03
2.000000e-03
2.375000e-03
1.950000e-02
5.500000e-03
2.125000e-03
2.000000e-03
2.125000e-03
1.975000e-02
1.937500e-02
1.937500e-02
1.962500e-02
9.375000e-03
2.500000e-03
1.937500e-02
1.937500e-02
1.950000e-02
1.937500e-02
1.937500e-02
3.250000e-03
2.125000e-03
1.937500e-02
1.950000e-02
2.125000e-03
1.950000e-02
1.937500e-02
1.937500e-02
2.000000e-03
2.125000e-03
1.937500e-02
1.937500e-02
1.937500e-02
2.000000e-03
2.000000e-03
2.000000e-03
2.375000e-03
2.125000e-03
1.975000e-02
1.862500e-02
7.125000e-03
2.000000e-03
2.375000e-03
1.937500e-02
1.950000e-02
1.937500e-02
1.975000e-02
1.875000e-03
2.125000e-03
1.950000e-02
2.500000e-03
2.125000e-03
2.000000e-03
1.875000e-03
1.725000e-02
2.500000e-03
1.637500e-02
2.125000e-03
1.950000e-02
1.950000e-02
1.475000e-02
3.125000e-03
2.375000e-03
1.150000e-02
2.000000e-03
1.950000e-02
1.925000e-02
1.937500e-02
1.987500e-02
1.175000e-02
1.962500e-02
2.000000e-03
2.000000e-03
1.937500e-02
1.937500e-02
1.950000e-02
2.375000e-03
1.875000e-03
1.950000e-02
2.125000e-03
2.375000e-03
2.000000e-03
2.375000e-03
1.937500e-02
5.500000e-03
1.950000e-02
2.125000e-03
2.500000e-03
1.950000e-02
2.000000e-03
5.500000e-03
1.250000e-02
1.337500e-02
2.500000e-03
2.375000e-03
2.500000e-03
2.000000e-03
2.125000e-03
1.987500e-02
2.000000e-03
1.925000e-02
1.937500e-02
1.937500e-02
1.937500e-02
2.125000e-03
1.950000e-02
1.950000e-02
1.937500e-02
2.875000e-03
1.475000e-02
2.125000e-03
1.975000e-02
1.637500e-02
1.950000e-02
1.950000e-02
2.375000e-03
1.512500e-02
2.500000e-03
2.125000e-03
1.975000e-02
2.000000e-03
1.937500e-02
1.050000e-02
1.875000e-03
1.625000e-02
2.125000e-03
2.125000e-03
2.125000e-03
1.937500e-02
2.375000e-03
1.875000e-02
2.375000e-03
6.375000e-03
2.000000e-03
2.000000e-03
2.125000e-03
1.950000e-02
1.937500e-02
1.950000e-02
1.937500e-02
9.375000e-03
5.500000e-03
2.500000e-03
8.625000e-03
2.000000e-03
1.937500e-02
7.000000e-03
1.937500e-02
1.937500e-02
5.875000e-03
1.937500e-02
1.950000e-02
1.950000e-02
1.937500e-02
1.937500e-02
7.875000e-03
2.000000e-03
1.950000e-02
2.125000e-03
2.500000e-03
2.625000e-03
2.000000e-03
2.500000e-03
1.950000e-02
1.950000e-02
1.987500e-02
1.975000e-02
1.937500e-02
1.950000e-02
2.000000e-03
1.950000e-02
2.500000e-03
2.000000e-03
1.937500e-02
1.937500e-02
2.500000e-03
1.950000e-02
1.937500e-02
1.787500e-02
8.625000e-03
1.975000e-02
2.125000e-03
2.125000e-03
1.950000e-02
2.125000e-03
2.125000e-03
1.875000e-03
2.500000e-03
2.500000e-03
2.250000e-03
1.825000e-02
2.500000e-03
2.375000e-03
2.500000e-03
1.950000e-02
7.125000e-03
1.925000e-02
7.000000e-03
1.962500e-02
1.950000e-02
1.950000e-02
1.975000e-02
1.962500e-02
1.937500e-02
1.937500e-02
1.937500e-02
2.000000e-03
1.937500e-02
1.950000e-02
1.937500e-02
1.937500e-02
2.000000e-03
2.500000e-03
2.125000e-03
1.937500e-02
2.000000e-03
1.562500e-02
1.962500e-02
1.012500e-02
1.937500e-02
8.250000e-03
1.937500e-02
1.937500e-02
6.125000e-03
1.950000e-02
1.625000e-02
4.625000e-03
1.950000e-02
1.487500e-02
2.500000e-03
2.375000e-03
2.375000e-03
3.875000e-03
1.950000e-02
9.375000e-03
1.950000e-02
1.962500e-02
1.950000e-02
1.950000e-02
1.950000e-02
2.000000e-03
1.962500e-02
1.950000e-02
2.375000e-03
1.950000e-02
1.862500e-02
4.750000e-03
2.000000e-03
1.950000e-02
1.962500e-02
2.000000e-03
1.987500e-02
1.937500e-02
1.975000e-02
2.125000e-03
4.250000e-03
2.375000e-03
1.950000e-02
1.937500e-02
2.125000e-03
1.875000e-03
2.000000e-03
1.937500e-02
1.950000e-02
2.000000e-03
1.950000e-02
1.950000e-02
9.500000e-03
1.937500e-02
2.125000e-03
1.337500e-02
2.375000e-03
1.950000e-02
2.125000e-03
2.000000e-03
2.375000e-03
2.375000e-03
1.950000e-02
2.250000e-03
2.000000e-03
1.975000e-02
1.950000e-02
1.937500e-02
1.950000e-02
1.962500e-02
1.937500e-02
9.250000e-03
2.000000e-03
2.125000e-03
1.950000e-02
1.875000e-03
2.000000e-03
2.000000e-03
9.375000e-03
2.500000e-03
2.000000e-03
1.937500e-02
2.000000e-02
2.000000e-03
2.125000e-03
1.950000e-02
1.100000e-02
2.000000e-03
7.000000e-03
2.000000e-03
2.000000e-03
5.625000e-03
1.950000e-02
1.950000e-02
2.125000e-03
2.000000e-03
1.962500e-02
1.937500e-02
2.125000e-03
2.375000e-03
1.950000e-02
2.000000e-03
9.375000e-03
2.125000e-03
2.000000e-03
1.950000e-02
3.250000e-03
1.950000e-02
1.025000e-02
1.950000e-02
1.950000e-02
2.375000e-03
9.875000e-03
2.125000e-03
1.950000e-02
1.875000e-03
2.125000e-03
2.125000e-03
1.362500e-02
2.000000e-03
2.000000e-03
2.000000e-03
2.125000e-03
2.250000e-03
2.375000e-03
2.375000e-03
2.125000e-03
2.000000e-03
2.000000e-03
1.987500e-02
1.975000e-02
2.000000e-03
1.937500e-02
1.937500e-02
1.950000e-02
3.875000e-03
1.800000e-02
7.500000e-03
1.950000e-02
1.937500e-02
5.500000e-03
2.125000e-03
2.000000e-03
2.125000e-03
1.175000e-02
1.950000e-02
1.950000e-02
2.000000e-03
1.975000e-02
2.000000e-03
2.000000e-03
9.750000e-03
2.125000e-03
1.950000e-02
1.950000e-02
1.987500e-02
2.000000e-03
1.950000e-02
1.950000e-02
1.950000e-02
2.000000e-03
2.375000e-03
1.950000e-02
1.975000e-02
1.937500e-02
2.125000e-03
2.375000e-03
1.325000e-02
2.125000e-03
2.000000e-03
1.950000e-02
1.950000e-02
1.950000e-02
2.000000e-03
1.012500e-02
2.375000e-03
1.950000e-02
1.950000e-02
2.125000e-03
1.962500e-02
1.875000e-03
1.925000e-02
2.500000e-03
2.125000e-03
1.950000e-02
2.125000e-03
6.375000e-03
2.250000e-03
2.125000e-03
8.250000e-03
2.250000e-03
1.937500e-02
1.025000e-02
2.125000e-03
3.625000e-03
1.925000e-02
1.975000e-02
2.250000e-03
1.962500e-02
1.925000e-02
1.925000e-02
1.937500e-02
1.437500e-02
1.925000e-02
1.550000e-02
2.125000e-03
5.625000e-03
1.937500e-02
2.250000e-03
1.950000e-02
1.937500e-02
6.375000e-03
1.925000e-02
1.937500e-02
2.125000e-03
1.925000e-02
1.937500e-02
1.937500e-02
1.925000e-02
2.250000e-03
1.937500e-02
1.712500e-02
2.250000e-03
2.500000e-03
1.937500e-02
1.962500e-02
1.925000e-02
2.250000e-03
2.625000e-03
1.787500e-02
2.250000e-03
2.250000e-03
1.775000e-02
4.000000e-03
2.250000e-03
1.937500e-02
2.250000e-03
2.250000e-03
2.625000e-03
2.625000e-03
1.325000e-02
1.937500e-02
1.937500e-02
1.925000e-02
1.925000e-02
2.125000e-03
1.937500e-02
1.925000e-02
2.250000e-03
1.962500e-02
1.925000e-02
1.937500e-02
2.625000e-03
1.937500e-02
1.925000e-02
1.937500e-02
1.937500e-02
2.250000e-03
2.250000e-03
2.625000e-03
1.937500e-02
2.500000e-03
2.125000e-03
1.562500e-02
2.250000e-03
1.937500e-02
2.250000e-03
2.250000e-03
2.250000e-03
1.925000e-02
2.375000e-03
1.950000e-02
2.125000e-03
2.625000e-03
1.937500e-02
1.775000e-02
3.750000e-03
2.125000e-03
1.925000e-02
2.250000e-03
2.250000e-03
1.937500e-02
1.937500e-02
1.937500e-02
2.250000e-03
1.937500e-02
1.937500e-02
1.925000e-02
1.975000e-02
1.937500e-02
2.250000e-03
5.625000e-03
1.937500e-02
2.125000e-03
1.937500e-02
1.950000e-02
2.500000e-03
1.937500e-02
1.925000e-02
2.250000e-03
1.925000e-02
2.250000e-03
2.375000e-03
1.937500e-02
2.250000e-03
1.937500e-02
1.937500e-02
1.937500e-02
2.625000e-03
1.937500e-02
1.937500e-02
2.625000e-03
1.925000e-02
1.937500e-02
1.937500e-02
2.625000e-03
