0.000000e+00
-2.546869e+17
-5.093738e+17
-1.872507e+18
-1.018748e+18
-1.649879e+17
-3.745015e+18
2.919764e+17
-2.037495e+18
-3.457472e+18
-3.299759e+17
-3.142617e+18
-7.490030e+18
-2.969869e+18
5.839527e+17
-5.866667e+18
-4.074991e+18
-2.283315e+18
-6.914945e+18
-3.361123e+18
-6.599517e+17
-6.144233e+18
-6.285233e+18
-2.674568e+18
-1.498006e+19
-9.550404e+18
-5.939739e+18
-6.080739e+18
1.167905e+18
-2.432526e+19
-1.173333e+19
-1.539863e+19
-8.149981e+18
-7.722547e+18
-4.566629e+18
1.204086e+18
-1.382989e+19
-2.067841e+19
-6.722245e+18
-9.932790e+18
-1.319903e+18
2.631823e+18
-1.228847e+19
-2.288866e+19
-1.257047e+19
-8.391367e+18
-5.349135e+18
-8.445993e+18
-2.996012e+19
-1.600395e+19
-1.910081e+19
-1.605858e+19
-1.187948e+19
-1.561289e+18
-1.216148e+19
-1.615915e+18
2.335811e+18
5.378042e+18
-4.865052e+19
-2.014244e+19
-2.346667e+19
-1.292110e+19
-3.079725e+19
-1.297573e+19
-1.629996e+19
-1.962419e+19
-1.544509e+19
-1.967882e+19
-9.133258e+18
1.184931e+18
2.408173e+18
-3.797797e+19
-2.765978e+19
-2.461755e+19
-4.135683e+19
-3.103864e+19
-1.344449e+19
-1.017489e+19
-1.986558e+19
-1.659597e+19
-2.639807e+18
-1.233050e+19
5.263645e+18
8.760624e+18
-2.457693e+19
-6.337146e+19
-4.577731e+19
-1.726923e+19
-2.514093e+19
-2.346294e+19
-1.678273e+19
-1.737848e+19
-1.069827e+19
-9.475029e+18
-1.689199e+19
1.161610e+19
-5.992024e+19
-6.051599e+19
-3.200790e+19
-3.942486e+19
-3.820162e+19
-3.152141e+19
-3.211716e+19
-2.543694e+19
-2.375896e+19
-8.256236e+19
-3.122578e+18
-2.554620e+19
-2.432296e+19
-4.674658e+19
-3.231831e+18
-2.565545e+19
4.671622e+18
-3.230391e+19
1.075608e+19
-3.849763e+19
-9.730104e+19
-3.241317e+19
-4.028487e+19
-3.906163e+19
-4.693333e+19
-3.418589e+18
-2.584221e+19
-1.006705e+19
-6.159450e+19
1.056933e+19
-2.595146e+19
4.375610e+18
-3.259993e+19
-6.957546e+19
-3.924839e+19
-7.576918e+19
-3.089019e+19
-5.513280e+19
-3.935764e+19
-3.449642e+19
-1.826652e+19
-5.342306e+19
2.369862e+18
-3.278668e+19
4.816346e+18
-4.125414e+19
-7.595594e+19
-5.611096e+18
-5.531956e+19
-3.954440e+19
-4.923510e+19
-1.845328e+19
-8.271365e+19
2.183103e+18
-6.207727e+19
-9.922329e+18
-2.688898e+19
-3.383118e+18
-2.034977e+19
-7.005823e+19
-3.973116e+19
-6.397377e+19
-3.319195e+19
-8.290041e+19
-5.279614e+18
-4.771212e+19
-2.466100e+19
-7.073149e+19
1.052729e+19
-3.554319e+19
1.752125e+19
-8.311892e+19
-4.915387e+19
-4.793062e+19
-1.267429e+20
9.085543e+18
-9.155462e+19
1.517001e+19
-3.453846e+19
-3.331521e+19
-5.028187e+19
-1.904530e+19
-4.692589e+19
8.867037e+18
-3.356547e+19
-1.342056e+20
-3.475696e+19
-7.718947e+19
-2.139654e+19
-4.927713e+19
-1.895006e+19
-6.411105e+19
-3.378397e+19
-6.166456e+19
2.323219e+19
-7.740797e+19
-1.198405e+20
-2.039181e+19
-1.210320e+20
-3.613522e+19
-6.401580e+19
-3.368873e+19
-7.884972e+19
-4.852265e+19
-7.640324e+19
-2.061031e+19
-6.304282e+19
3.640585e+19
-6.423431e+19
-1.066668e+20
-5.087389e+19
-7.875448e+19
-4.751791e+19
-6.448456e+19
-1.651247e+20
1.072150e+19
-6.245155e+18
-1.068853e+20
-5.109240e+19
5.199425e+19
-4.864591e+19
-3.650873e+19
-9.349315e+19
-1.641200e+20
-6.463661e+18
-4.889616e+19
-5.131090e+19
-1.519511e+20
9.343243e+18
6.928506e+18
-6.460783e+19
-1.361442e+20
2.151217e+19
-6.368420e+18
-7.699526e+19
-9.396191e+19
-1.946021e+20
6.491766e+19
-6.482633e+19
-1.363627e+20
-8.056974e+19
5.162074e+19
-7.812326e+19
-6.598608e+19
-9.386667e+19
-1.897436e+19
-6.837179e+18
-7.837351e+19
-5.168442e+19
-1.814284e+20
-2.013410e+19
6.554989e+18
-1.231890e+20
-1.656215e+20
2.113865e+19
-6.404010e+19
-5.190293e+19
-1.234393e+20
8.751220e+18
6.336483e+18
-6.519985e+19
-1.367362e+20
-1.391509e+20
-6.960443e+18
-7.849678e+19
-6.635960e+19
-1.515384e+20
-1.934787e+19
-6.178038e+19
-8.238501e+19
-1.102656e+20
5.102871e+19
-7.871528e+19
-1.065959e+20
-6.899284e+19
-1.114253e+20
-3.653303e+19
-6.441362e+19
-1.068461e+20
-2.365901e+20
4.739723e+18
5.962965e+18
-6.557337e+19
-1.953174e+20
9.632691e+18
4.723572e+19
-8.250827e+19
-1.240313e+20
-1.519119e+20
-1.972139e+19
-1.122219e+19
-8.275853e+19
-1.106391e+20
-7.552467e+18
-7.908880e+19
-1.069694e+20
-9.847019e+19
3.372029e+19
-3.690655e+19
-6.478714e+19
-1.654273e+20
-1.278243e+20
4.366205e+18
-8.172204e+19
-1.241545e+20
-1.665871e+20
-1.984466e+19
-1.134546e+19
-5.377796e+19
-1.535086e+20
-6.766237e+18
-4.919874e+19
-4.069954e+19
-1.413397e+20
-1.401165e+20
-3.702982e+19
-7.946232e+19
-1.364467e+20
-1.279475e+20
3.425627e+19
-6.638390e+19
-1.233683e+20
-1.658008e+20
1.046329e+20
-1.055923e+19
-5.299173e+19
-9.542423e+19
-2.542721e+20
-4.932201e+19
1.738486e+19
-1.414630e+20
-1.829860e+20
2.105458e+19
-7.867609e+19
-7.108638e+19
-6.895365e+19
3.504250e+19
-6.650716e+19
-1.662378e+20
-5.678472e+19
-9.830773e+19
-5.433824e+19
-9.586125e+19
-9.554750e+19
-2.534858e+20
1.603835e+19
1.817109e+19
-8.155958e+19
-1.831092e+20
-2.090544e+19
3.034001e+19
-6.939066e+19
-6.907691e+19
-1.688076e+20
-6.663043e+19
-1.081534e+20
-1.005637e+20
-1.420867e+20
-3.809060e+19
-5.232877e+19
-9.385177e+19
-8.626207e+19
1.773407e+19
-2.560793e+19
-6.713093e+19
-2.268883e+20
-2.684113e+20
9.024340e+19
-6.951392e+19
-1.110369e+20
-1.543789e+20
-1.085904e+20
-4.279308e+19
-8.431609e+19
-9.855426e+19
5.441883e+18
-3.790012e+19
-1.376308e+20
-1.282221e+20
-1.715641e+20
-6.756795e+19
-2.359845e+19
-1.233291e+20
-1.157394e+20
4.646439e+19
-5.508527e+19
-1.548159e+20
-1.981579e+20
-2.396810e+20
2.558387e+18
-4.078361e+19
-1.405143e+20
-2.420639e+20
-7.986014e+19
-7.227043e+19
-1.720011e+20
-1.280316e+20
-2.403546e+19
-6.737746e+19
-5.796877e+19
-1.576994e+20
-2.010414e+20
-9.704529e+19
-1.112835e+20
-1.528065e+20
-8.700911e+19
-4.122062e+19
-8.456262e+19
-1.260856e+20
-2.858430e+20
7.281171e+19
3.128870e+19
-1.284686e+20
-1.699916e+20
-2.133336e+20
-1.093375e+20
-1.017478e+20
-1.432708e+20
-1.575090e+20
-5.351281e+19
-9.503582e+19
-8.744612e+19
-1.289691e+20
-2.679197e+19
-3.302495e+20
-8.255315e+19
2.144299e+19
-1.746941e+20
-1.249031e+19
-3.177668e+20
-2.137706e+20
-5.156684e+19
-1.021848e+20
-5.639631e+19
1.039885e+20
-1.412613e+20
-9.729182e+19
-3.425416e+20
-7.301747e+19
3.097868e+19
-1.869863e+20
-8.299016e+19
-3.282400e+20
-1.169235e+20
-1.292732e+19
-2.599961e+20
-9.779233e+19
3.348865e+19
-1.026218e+20
5.776301e+19
-3.039021e+20
-1.435173e+20
1.868649e+19
-3.429787e+20
1.385701e+19
-2.313928e+20
-1.292157e+20
-2.521951e+19
-2.722883e+20
-5.915282e+19
4.302434e+19
-2.022255e+20
-1.273684e+19
-2.579867e+20
-1.539905e+20
5.732600e+19
-1.879238e+20
-8.574667e+19
-3.892042e+20
-1.415078e+20
1.298353e+20
-1.754411e+20
-1.296527e+20
3.073215e+19
-2.727253e+20
-1.105215e+20
-1.611395e+20
-5.714334e+19
1.032415e+20
-2.584237e+20
-1.562465e+20
-2.923570e+20
-1.319722e+20
-2.797602e+19
-1.877333e+20
-2.552954e+19
-3.794871e+19
-1.758782e+20
-1.367436e+19
-3.189508e+20
-1.567470e+20
3.274162e+19
-1.033688e+20
-5.939935e+19
-3.628568e+20
-2.006530e+20
-4.026821e+19
-2.345863e+20
1.310998e+19
5.889846e+19
-2.463780e+20
-8.417421e+19
-3.312430e+20
-1.181075e+20
4.227730e+19
-2.029725e+20
-1.280802e+20
-3.751490e+20
-1.038059e+20
-1.628697e+18
-2.468785e+20
-8.649370e+19
1.750244e+19
-2.586702e+20
1.267297e+19
-2.926035e+20
-1.303997e+20
3.180410e+19
-2.734724e+20
-2.129203e+18
-2.783018e+20
-1.743057e+20
-1.392089e+19
-2.591707e+20
-1.569936e+20
1.143496e+20
-1.327192e+20
-5.782689e+19
-3.030767e+20
-1.426919e+20
-3.869575e+19
-2.857646e+20
-1.235608e+20
-2.105585e+20
-1.647700e+20
8.292629e+19
-2.205312e+20
-6.014638e+19
1.020574e+20
-2.014001e+20
-1.574306e+20
-4.026804e+20
-2.131917e+20
-5.098794e+19
-1.379857e+20
2.421812e+19
-2.228507e+20
-2.352699e+20
-7.306607e+19
-2.328234e+20
-1.288272e+20
3.155757e+19
-2.136923e+20
-1.115151e+20
-4.731802e+20
-9.451670e+19
9.479446e+18
-1.502779e+20
1.192593e+19
-2.915316e+20
-1.311467e+20
-8.535826e+19
-3.906347e+20
-2.284309e+20
1.926538e+19
-2.841921e+20
9.447144e+19
-1.507784e+20
-1.650165e+20
-2.812744e+18
-2.480626e+20
-5.857392e+19
-3.038237e+20
-1.434389e+20
-3.944279e+19
-4.029269e+20
-2.244439e+19
7.973277e+19
-1.655171e+20
8.217925e+19
-2.212782e+20
-1.754897e+20
-1.510493e+19
-3.185624e+20
-1.581776e+20
-4.034274e+20
-2.139388e+20
1.665438e+20
-1.969404e+20
-9.294424e+19
6.744058e+19
-1.778092e+20
-7.381310e+19
-2.335704e+20
-1.295743e+20
-8.560479e+19
-3.308546e+20
-2.286775e+20
-2.556485e+20
-9.526373e+19
8.732411e+18
-1.510249e+20
-1.634441e+20
5.696738e+19
-2.483091e+20
-1.443130e+20
-3.331741e+20
-2.291780e+20
-3.968931e+19
-1.248681e+20
-2.269092e+19
-3.261484e+20
-1.075559e+20
-3.559779e+18
-3.070173e+20
-1.175286e+20
-1.353247e+19
-3.188089e+20
-9.839748e+19
-4.036740e+20
-8.139908e+19
1.371934e+20
-2.826794e+20
-9.137178e+19
-2.802329e+20
-1.762368e+20
-7.405963e+19
-2.611018e+20
-1.589246e+20
-1.713438e+20
-2.728935e+20
4.938140e+19
-2.558951e+20
-3.548361e+19
6.851253e+19
-2.367639e+20
-1.327678e+20
-3.507328e+20
-2.467366e+20
-2.814416e+19
-3.316016e+20
-2.294245e+20
2.092657e+20
-2.124261e+20
-2.111845e+19
-2.081606e+20
-1.059835e+20
-1.987319e+18
-1.908485e+20
-8.685233e+19
-5.085441e+20
-2.881327e+20
-9.864401e+19
-1.838228e+20
3.476971e+19
1.387659e+20
-2.829259e+20
-6.069549e+19
-3.659720e+20
-1.764833e+20
4.210916e+19
-2.595293e+20
-1.573522e+20
-4.626287e+20
-1.421728e+20
-3.635764e+19
-1.379073e+20
-3.573014e+19
7.008499e+19
-1.187762e+20
-1.330143e+20
-4.382908e+20
-3.324757e+20
-1.138832e+20
-1.135694e+20
-1.139229e+19
-1.966155e+20
-2.108536e+20
-1.086765e+20
-2.938996e+20
-1.917225e+20
-2.233848e+18
-1.910950e+20
-8.527987e+19
-5.069717e+20
-7.010046e+19
3.207670e+19
-2.695618e+20
3.634217e+19
-2.689343e+20
-1.631192e+20
-6.094202e+19
-3.662185e+20
-2.640413e+20
-4.181088e+19
-3.470874e+20
6.068002e+19
-2.445965e+20
-1.387813e+20
-3.660416e+19
-1.381538e+20
-1.196502e+20
-3.376152e+20
-2.063342e+20
-1.332609e+20
-5.222108e+20
-2.163069e+20
1.914605e+20
-2.011275e+20
1.084145e+20
-2.841735e+20
-2.111002e+20
-7.618120e+19
-2.941462e+20
-1.046575e+20
-3.808302e+20
-1.877035e+20
-1.728379e+20
-1.725241e+20
-1.540205e+20
3.546815e+19
-6.608151e+19
-5.121585e+19
-2.655429e+20
-1.342619e+20
-6.118854e+19
-4.537765e+20
-1.442346e+20
-5.368225e+20
-1.290552e+20
1.804868e+20
-2.121012e+20
-1.390278e+20
-7.746863e+18
-2.220739e+20
-2.072082e+20
-3.087579e+20
-1.192692e+20
-2.171809e+20
-3.187306e+20
-8.558617e+19
-2.999132e+20
-1.686322e+20
2.085646e+19
-1.971085e+20
-1.786049e+20
1.088377e+19
-3.817042e+20
-7.580023e+19
-4.647502e+20
-2.752616e+20
2.489211e+20
-2.564442e+20
-6.695554e+19
-3.431282e+20
-1.536395e+20
-1.351359e+20
-2.366856e+20
-4.719691e+19
-1.487466e+20
-2.466582e+20
-2.317926e+20
-2.314788e+20
-9.655987e+19
9.292877e+19
-1.250362e+20
-1.101705e+20
-3.244975e+20
-3.096319e+20
-3.727919e+18
-3.963159e+20
-2.031893e+20
-4.793619e+20
-1.880098e+20
5.116775e+18
-3.874712e+20
-8.156722e+19
-6.670156e+19
-2.810286e+20
-2.661629e+20
-4.841279e+20
-2.946392e+20
-1.597203e+20
-1.594065e+20
-1.445409e+20
-2.424525e+20
-3.440022e+20
-1.545136e+20
-2.560632e+20
-2.375596e+20
-4.807093e+19
-3.242436e+20
-1.347549e+20
-6.401202e+20
-1.159375e+20
7.355111e+19
-3.153989e+20
-9.494911e+18
-4.020829e+20
-2.125942e+20
-1.940906e+20
-4.120556e+20
-2.225669e+20
-9.128594e+19
-3.056129e+20
-7.246855e+19
-1.740182e+20
-2.719299e+20
-8.244125e+19
-1.839909e+20
-1.691252e+20
-3.834522e+20
-2.521713e+20
-1.790979e+20
-5.716859e+20
-2.621440e+20
1.456234e+20
-2.469645e+20
6.257740e+19
-3.300106e+20
-2.569372e+20
-1.256563e+20
-3.399833e+20
-3.251176e+20
-4.266673e+20
-2.371786e+20
-2.186750e+20
-2.183612e+20
-2.034956e+20
-1.036893e+19
-2.865416e+20
-9.705293e+19
-3.150179e+20
-1.800989e+20
-1.070256e+20
-4.996136e+20
-1.900716e+20
-5.826596e+20
-1.748922e+20
-2.764419e+20
-2.579383e+20
-1.848649e+20
-5.358394e+19
1.359047e+20
-6.604989e+20
-3.545949e+20
-1.651063e+20
-1.466027e+20
4.288599e+19
-5.388769e+20
-3.493882e+20
-2.144693e+20
-2.498062e+19
1.645080e+20
-6.355336e+20
-4.424069e+20
-4.275413e+20
-1.216373e+20
-1.031337e+20
8.635497e+19
-2.043696e+20
-3.059192e+20
-1.127926e+20
1.848837e+19
2.079770e+20
-5.920646e+20
-2.825226e+20
-2.676570e+20
-1.945836e+20
1.149583e+20
-6.850833e+20
-2.773159e+20
-1.460349e+20
4.709169e+19
6.195735e+19
-6.798766e+20
-3.739726e+20
-3.554690e+20
-1.659803e+20
-3.469934e+19
-6.564800e+20
-4.233356e+20
-2.338469e+20
-4.435829e+19
-2.585464e+19
2.800493e+20
-5.199923e+20
-3.305036e+20
-1.955847e+20
-1.225113e+20
6.697731e+19
-6.130110e+20
-2.052436e+20
-1.903779e+20
1.155260e+20
1.761434e+19
-6.078043e+20
-3.019003e+20
-2.870346e+20
-9.390801e+19
3.737297e+19
-5.880456e+20
-6.859573e+20
-1.617746e+20
2.771403e+19
4.257969e+19
-4.627856e+20
-4.479200e+20
-2.584313e+20
-2.435656e+20
-5.043902e+19
1.390496e+20
-5.445766e+20
-3.514500e+20
-1.183056e+20
1.875983e+20
8.604868e+19
-5.357320e+20
-4.044510e+20
-2.149623e+20
-2.547368e+19
1.094453e+20
-5.159733e+20
-6.175230e+20
-3.079810e+20
-7.483665e+19
1.146520e+20
-3.943513e+20
-3.758476e+20
-1.863590e+20
-1.714933e+20
1.799531e+19
-7.784083e+20
-4.725043e+20
-2.830157e+20
-2.645120e+20
2.596706e+20
2.745363e+20
-3.508823e+20
-2.159633e+20
-2.593053e+20
-6.981669e+19
6.146429e+19
-5.603163e+20
-5.454507e+20
-2.395467e+20
-2.210431e+20
1.867243e+20
-3.222790e+20
-3.074133e+20
-1.142867e+20
1.699430e+19
2.064829e+20
-8.263893e+20
-5.168473e+20
-3.273587e+20
-3.124930e+20
-2.951093e+18
-5.847140e+20
-3.952253e+20
-2.639443e+20
-7.081770e+19
-5.595204e+19
2.499519e+20
-3.754667e+20
-3.569630e+20
-5.105907e+19
-2.690241e+20
-7.589743e+19
-5.412450e+20
-3.517563e+20
-1.622677e+20
-2.734871e+19
1.621399e+20
-6.379017e+20
-3.283597e+20
-3.134941e+20
-1.240054e+20
6.548324e+19
-3.962263e+20
-2.067377e+20
-4.247027e+20
-1.187987e+20
-1.002950e+20
-7.257137e+20
-4.198097e+20
-4.013060e+20
-2.118174e+20
-8.053642e+19
1.089522e+20
-4.691727e+20
-1.632687e+20
2.621995e+19
4.108562e+19
1.177969e+20
-6.822447e+20
-4.927560e+20
-3.578371e+20
-1.683484e+20
2.114023e+19
-6.624860e+20
-2.510807e+20
-2.362150e+20
6.968894e+19
8.455460e+19
-5.372260e+20
-4.059450e+20
-2.164564e+20
-2.561604e+20
-1.248794e+20
-7.502980e+20
-7.354324e+20
-2.076117e+20
-1.927460e+20
-3.257393e+18
3.026466e+20
-4.937570e+20
-3.042684e+20
-1.729874e+20
2.013922e+19
3.500488e+19
-4.739984e+20
-5.173404e+20
-2.805580e+20
2.534593e+19
4.021159e+19
-5.852070e+20
-4.502881e+20
-2.607994e+20
-7.131076e+19
6.360820e+19
-5.618104e+20
-5.469447e+20
-2.410408e+20
-4.258405e+18
-4.760040e+19
-5.566037e+20
-5.417380e+20
-3.486114e+20
-2.173304e+20
-2.784177e+19
-8.242454e+20
-5.183414e+20
-3.288528e+20
-3.139871e+20
2.138336e+20
2.286992e+20
-3.967194e+20
-2.654384e+20
-3.051424e+20
-1.156538e+20
1.562721e+19
-6.061534e+20
-5.912878e+20
-2.853838e+20
-2.705181e+20
-7.739150e+19
-7.610178e+20
-5.715291e+20
-3.820405e+20
-2.471215e+20
3.789246e+20
-4.211170e+20
-3.444057e+20
-3.295400e+20
-1.400514e+20
1.658526e+20
-6.305510e+20
-4.410624e+20
-3.097814e+20
-1.202928e+20
-1.017891e+20
2.041148e+20
-4.213038e+20
-4.028001e+20
-9.689615e+19
-3.148611e+20
-1.253725e+20
-8.053608e+20
-6.158721e+20
-4.263835e+20
-4.115178e+20
-1.019759e+20
-4.654600e+20
-2.759714e+20
-1.410524e+20
4.843624e+19
2.379249e+20
-4.457014e+20
-2.525748e+20
-4.705397e+20
-1.646358e+20
-1.461321e+20
-7.715507e+20
-4.656468e+20
-4.507811e+20
-2.576545e+20
-1.263735e+20
6.311514e+19
-7.369264e+20
-4.273845e+20
-4.125188e+20
-2.230302e+20
8.651175e+19
-9.463605e+20
-3.203144e+20
-1.890334e+20
4.093230e+18
1.895889e+19
-4.900444e+20
-3.005557e+20
-2.820521e+20
2.385186e+19
3.871752e+19
-5.830631e+20
-4.517821e+20
-2.622935e+20
-3.056355e+20
-1.707165e+20
-7.961351e+20
-7.812695e+20
-4.753655e+20
-4.568618e+20
-2.673732e+20
3.853076e+19
-7.578728e+20
-5.683842e+20
-5.457610e+17
1.889429e+20
2.074465e+20
-3.015568e+20
-3.448988e+20
-3.300331e+20
-2.049115e+19
-5.625488e+18
-6.310441e+20
-4.961251e+20
-3.066365e+20
-1.171478e+20
1.413314e+19
-6.076475e+20
-5.927818e+20
-2.868779e+20
-2.720122e+20
-7.888557e+19
-9.953425e+20
-8.058538e+20
-6.127272e+20
-4.488877e+19
1.445999e+20
1.594655e+20
-3.458998e+20
-3.310341e+20
-1.415455e+20
1.643585e+20
1.828621e+20
-4.425565e+20
-3.112755e+20
-3.509795e+20
-3.361138e+20
-3.020987e+19
-6.556285e+20
-6.371248e+20
-3.312209e+20
-3.163552e+20
-1.268666e+20
-8.068548e+20
-6.173662e+20
-4.278776e+20
-2.929586e+20
3.330875e+20
-4.669541e+20
-3.938808e+20
-3.753771e+20
-1.858885e+20
1.200155e+20
1.348812e+20
-4.868995e+20
-3.556185e+20
-1.661298e+20
-1.476262e+20
1.582778e+20
-4.671408e+20
-4.522752e+20
-2.591486e+20
-1.278676e+20
-1.712096e+20
-9.712512e+20
-6.617092e+20
-4.722206e+20
-4.573549e+20
-1.478130e+20
-5.112971e+20
-3.218084e+20
-1.905275e+20
2.599159e+18
1.746482e+19
-4.915385e+20
-3.020498e+20
-5.163768e+20
-3.268882e+20
-7.919187e+19
1.139348e+20
-6.861068e+20
-4.966182e+20
-3.071295e+20
-2.886259e+20
1.336934e+20
-6.663482e+20
-4.768596e+20
-4.583559e+20
-2.688673e+20
-7.937863e+19
-8.757822e+20
-2.497361e+20
-2.348705e+20
-4.538183e+19
-2.687819e+19
-6.522968e+20
-2.299775e+20
-2.151118e+20
-2.198522e+19
-7.119559e+18
-6.325382e+20
-6.140345e+20
-1.917152e+20
-2.350572e+20
-2.201916e+20
-2.706495e+19
-8.271065e+20
-6.376179e+20
-3.862836e+20
-1.967950e+20
-7.306317e+18
-8.073479e+20
-1.776638e+20
-1.627982e+20
2.669048e+19
2.743868e+20
-3.473938e+20
-5.653588e+20
-3.758702e+20
-1.827436e+20
-1.678779e+20
-5.604659e+20
-5.456002e+20
-3.524736e+20
-3.376079e+20
-1.481193e+20
-7.735379e+20
-5.222036e+20
-3.327149e+20
-3.178493e+20
-1.247227e+20
-3.426876e+20
-9.681062e+20
-5.457870e+20
-9.072585e+19
9.876279e+19
1.136285e+20
-5.117902e+20
-4.932865e+20
-7.096722e+19
1.185214e+20
1.370251e+20
-4.883935e+20
-4.735279e+20
-5.168699e+20
-2.655356e+20
-7.604695e+19
-7.014656e+20
-6.865999e+20
-4.934733e+20
-4.786076e+20
-5.628832e+19
-8.526919e+20
-6.632033e+20
-4.737146e+20
-4.588490e+20
1.708351e+20
4.185314e+20
-4.397178e+20
-4.248522e+20
-2.317256e+20
-4.223691e+19
-2.737125e+19
-4.163212e+20
-4.014556e+20
-2.119669e+20
-1.971013e+20
-3.974638e+18
-8.040162e+20
-3.816969e+20
-1.922083e+20
-1.737047e+20
-2.170467e+20
-1.017088e+21
-8.239616e+20
-5.762653e+20
-3.867767e+20
-1.972880e+20
-5.571342e+20
-3.676455e+20
-3.527799e+20
6.953942e+19
8.804306e+19
2.775317e+20
-3.478869e+20
-5.658519e+20
-3.727253e+20
-1.213910e+20
6.445969e+19
-7.319439e+20
-5.460933e+20
-3.529666e+20
-3.344630e+20
8.421832e+19
-7.121853e+20
-5.190587e+20
-5.078310e+20
-3.147044e+20
-1.215777e+20
-9.252573e+20
-2.955732e+20
-2.843455e+20
-9.121891e+19
-7.271527e+19
-7.017719e+20
-2.758146e+20
-2.573109e+20
-7.146028e+19
-5.295664e+19
1.401700e+20
-6.635096e+20
-2.375523e+20
-2.263246e+20
-2.660287e+20
-7.290203e+19
-8.765816e+20
-6.834550e+20
-6.649513e+20
-2.462700e+20
-2.277664e+20
-8.495470e+20
-2.271389e+20
-2.086352e+20
-2.278458e+19
2.285497e+20
-3.932309e+20
-6.148339e+20
-4.217073e+20
-2.285806e+20
-2.173530e+20
-6.063029e+20
-5.877993e+20
-4.019486e+20
-3.834450e+20
-1.975943e+20
-4.467697e+18
-5.680407e+20
-3.821900e+20
-3.636864e+20
-1.705597e+20
-3.921627e+20
-1.013943e+21
-5.879861e+20
-1.402009e+20
5.292571e+19
6.415339e+19
-5.576272e+20
-5.391236e+20
-1.204423e+20
7.268434e+19
9.118798e+19
-5.378686e+20
-5.193650e+20
-3.262383e+20
-3.150107e+20
-1.218840e+20
-9.255636e+20
-7.324370e+20
-5.393104e+20
-5.280827e+20
-1.021254e+20
-8.362176e+19
-7.126783e+20
-6.941747e+20
-5.010481e+20
1.213600e+20
3.726943e+20
-4.891929e+20
-4.706893e+20
-2.775626e+20
-2.663350e+20
-7.320833e+19
-6.367813e+20
-2.763076e+20
-2.578040e+20
-2.393004e+20
-2.280727e+20
-6.752303e+20
-4.311720e+20
-4.126684e+20
-4.491875e+19
-2.665217e+20
-1.062925e+21
-1.044422e+21
-4.511174e+20
-4.326137e+20
-4.141101e+20
3.829210e+20
-4.134826e+20
-4.022549e+20
-1.509206e+20
2.168290e+20
2.280566e+20
-5.683470e+20
-2.005974e+20
-4.222003e+20
-1.708660e+20
-1.523624e+20
-6.067960e+20
-5.882924e+20
-5.697887e+20
-2.093151e+20
4.201922e+19
-7.616603e+20
-7.431567e+20
-3.754071e+20
-3.641794e+20
-3.456758e+20
-7.928334e+20
-3.450483e+20
-3.265446e+20
-3.080410e+20
5.243265e+19
7.093629e+19
-4.999126e+20
-1.321630e+20
-1.136594e+20
-1.024317e+20
-8.392806e+19
-5.310857e+20
-5.198580e+20
-2.685237e+20
-1.336048e+20
-1.223771e+20
-9.187807e+20
-9.075530e+20
-5.398034e+20
-2.884691e+20
-2.772414e+20
-1.073645e+21
-2.693380e+20
-2.581103e+20
-2.396067e+20
3.609736e+20
-4.427060e+20
-4.242023e+20
-6.458053e+20
-2.780557e+20
-2.595521e+20
-1.549373e+19
-4.626514e+20
-4.441477e+20
-4.329200e+20
-4.144164e+20
-4.666680e+19
-6.175157e+20
-5.990121e+20
-2.385384e+20
-2.200348e+20
-4.343618e+20
-1.238041e+21
-6.374611e+20
-1.824000e+20
-1.711723e+20
1.965773e+20
-5.998263e+20
-5.885987e+20
-3.372644e+20
2.320928e+19
4.171292e+19
-7.546907e+20
-3.942170e+20
-3.757134e+20
-3.572098e+20
-3.459821e+20
2.176753e+19
-7.746361e+20
-7.634084e+20
-3.956588e+20
-1.516005e+20
-1.330968e+20
-9.295004e+20
-5.690268e+20
-5.505231e+20
-9.546204e+19
4.978423e+20
-2.985614e+20
-5.128884e+20
-5.016607e+20
-1.339111e+20
-1.226834e+20
-6.862564e+20
-3.185068e+20
-3.072791e+20
-2.887754e+20
-2.702718e+20
-7.247054e+20
-4.733711e+20
-4.548675e+20
-9.439381e+19
-3.087208e+20
-2.974931e+20
-1.093897e+21
-4.933165e+20
-4.820888e+20
-4.635852e+20
3.407219e+20
-4.629577e+20
-4.444540e+20
-1.931197e+20
1.673539e+20
1.858575e+20
-6.178220e+20
-2.500724e+20
-4.643994e+20
-2.203411e+20
-2.018375e+20
-6.489951e+20
-6.377674e+20
-6.192638e+20
-2.515142e+20
-7.455838e+18
-8.038594e+20
-7.926318e+20
-4.248822e+20
-4.063785e+20
-3.951508e+20
-9.587238e+20
-3.872474e+20
-3.760197e+20
-3.575161e+20
1.023355e+19
2.146123e+19
-7.749424e+20
-5.308841e+20
-1.631344e+20
-1.446308e+20
-1.334031e+20
-5.805608e+20
-5.620571e+20
-3.179988e+20
-5.323258e+20
-1.645762e+20
-9.682558e+20
-9.497521e+20
-5.892785e+20
-3.379442e+20
-3.194405e+20
-1.123120e+21
-3.188130e+20
-3.003094e+20
-2.890817e+20
3.114985e+20
-4.849051e+20
-4.736774e+20
-6.880044e+20
-3.275308e+20
-3.090271e+20
-5.769283e+19
-5.121264e+20
-4.936228e+20
-4.751192e+20
-4.638915e+20
-9.614186e+19
-6.597148e+20
-6.484871e+20
-2.807375e+20
-2.695099e+20
-4.838369e+20
-1.280240e+21
-6.869362e+20
-2.318751e+20
-2.133714e+20
1.471022e+20
-6.493014e+20
-6.307978e+20
-3.867394e+20
-1.898982e+19
-7.762138e+18
-8.041657e+20
-4.364161e+20
-4.251885e+20
-4.066848e+20
-3.881812e+20
-2.770753e+19
-8.241111e+20
-8.056075e+20
-4.451338e+20
-1.937996e+20
-1.825719e+20
-9.789755e+20
-6.112259e+20
-5.999982e+20
-1.449371e+20
4.556431e+20
-3.480364e+20
-5.623634e+20
-5.438598e+20
-1.833861e+20
-1.648825e+20
-7.357314e+20
-3.679818e+20
-3.494782e+20
-3.382505e+20
-3.197468e+20
-7.669045e+20
-5.228462e+20
-5.043425e+20
-1.365929e+20
-3.581959e+20
-3.396922e+20
-1.143372e+21
-5.427916e+20
-5.242879e+20
-5.130602e+20
2.912468e+20
-5.051568e+20
-4.939291e+20
-2.425948e+20
1.251548e+20
1.363825e+20
-6.600211e+20
-6.487934e+20
-5.138745e+20
-2.625402e+20
-2.513125e+20
-6.984702e+20
-6.799665e+20
-6.687388e+20
-6.502352e+20
-2.824856e+20
-8.533345e+20
-8.348309e+20
-4.743572e+20
-4.558536e+20
-4.373499e+20
1.043520e+19
-4.367224e+20
-4.182188e+20
-4.069911e+20
-3.924151e+19
-2.073787e+19
-8.244174e+20
-5.730832e+20
-2.126095e+20
-1.941059e+20
-1.756022e+20
-6.300358e+20
-6.115322e+20
-3.601979e+20
-5.818009e+20
-2.140513e+20
-1.010455e+21
-9.992272e+20
-6.314776e+20
-3.801433e+20
-3.689156e+20
-1.165319e+21
-3.682881e+20
-3.497845e+20
-3.312808e+20
-5.528838e+20
2.805271e+20
-5.158765e+20
7.742779e+19
-3.697299e+20
-1.166133e+21
-1.071679e+20
-5.543255e+20
2.718094e+20
-5.245942e+20
-1.320998e+21
-1.456169e+20
-7.091899e+20
1.242210e+20
-3.302126e+20
-1.126616e+21
-2.932053e+20
-1.329716e+21
8.577198e+19
-2.813501e+20
-1.077754e+21
1.049031e+20
-6.987765e+20
1.346344e+20
-4.289385e+20
-8.833721e+20
-4.996124e+19
-8.463649e+20
3.290160e+20
-4.673876e+20
-1.271067e+21
-4.376562e+20
-8.848139e+20
-5.867895e+19
-8.550826e+20
-1.302240e+21
-2.432746e+20
-1.039678e+21
-2.062673e+20
-6.607009e+20
1.727099e+20
-1.944122e+20
-4.087392e+20
4.246717e+20
-6.118385e+20
2.215724e+20
-2.255852e+20
-1.029265e+21
3.697673e+19
-4.101809e+20
4.159540e+20
-3.804496e+20
-1.184129e+21
-1.472298e+18
-5.650453e+20
2.610897e+20
-5.353139e+20
-9.824716e+20
-3.891673e+20
-1.185571e+21
2.299166e+20
-5.737630e+20
-1.370167e+21
-1.074742e+20
-5.546318e+20
2.787791e+20
-2.920699e+20
-7.392275e+20
9.418338e+19
-7.094962e+20
1.239147e+20
-5.560736e+20
-1.359753e+21
-2.935116e+20
-7.479452e+20
8.546568e+19
-7.109379e+20
-1.514618e+21
-3.319606e+20
-8.955336e+20
-6.939868e+19
-5.165563e+20
-1.312960e+21
-4.868250e+20
-8.466712e+20
3.287098e+20
-4.676939e+20
-1.264097e+21
-8.871657e+19
-8.851202e+20
-5.170929e+19
-6.225582e+20
5.600986e+20
-2.363050e+20
-1.039985e+21
1.426723e+20
-6.610072e+20
4.052343e+20
-3.911693e+20
-1.078434e+21
-2.450227e+20
-1.041426e+21
1.339546e+20
-4.296183e+20
-1.226022e+21
-3.998870e+20
-4.104872e+20
4.156477e+20
-3.807559e+20
-5.950829e+20
2.310520e+20
-5.653516e+20
3.522869e+19
-4.192049e+20
-1.215609e+21
-1.493670e+20
-6.038006e+20
2.296103e+20
-5.740693e+20
-1.370473e+21
-1.878160e+20
-7.586649e+20
7.474595e+19
-3.724117e+20
-1.176091e+21
-3.426804e+20
-1.371915e+21
3.629692e+19
-3.235492e+20
-1.127229e+21
5.542805e+19
-7.409756e+20
8.515938e+19
-4.784136e+20
-9.255712e+20
-9.943630e+19
-8.958399e+20
2.868169e+20
-5.168626e+20
-1.080436e+21
-4.871313e+20
-9.342889e+20
-1.008780e+20
-9.045576e+20
2.780992e+20
-2.854737e+20
-1.089153e+21
-2.557424e+20
-7.029000e+20
1.232349e+20
-2.366113e+20
-8.074602e+20
3.751967e+20
-6.540376e+20
1.720974e+20
-2.750603e+20
-1.071464e+21
-1.249833e+19
-8.089019e+20
3.737549e+20
-4.299246e+20
-1.226328e+21
-5.094736e+19
-6.145203e+20
2.188906e+20
-5.847890e+20
-1.031947e+21
-4.313664e+20
-1.235046e+21
1.804415e+20
-6.159621e+20
-1.419642e+21
-1.496733e+20
-6.041069e+20
2.293040e+20
-5.670996e+20
-7.887026e+20
4.470832e+19
-7.516953e+20
7.443965e+19
-3.727180e+20
-1.401952e+21
-3.429867e+20
-7.901443e+20
3.599062e+19
-7.604130e+20
-1.556817e+21
-3.814357e+20
-9.450087e+20
-1.115978e+20
-5.660314e+20
-1.362435e+21
-5.290241e+20
-8.961462e+20
5.193413e+20
-2.843383e+20
5.490726e+20
1.019150e+20
-7.017646e+20
1.316463e+20
-4.319267e+20
2.777929e+20
-5.186107e+20
-1.315014e+21
-1.396334e+20
-9.360370e+20
1.229286e+20
-6.734750e+20
-1.120633e+21
-2.944977e+20
-1.090901e+21
9.175552e+19
-4.790934e+20
-1.275497e+21
-4.420861e+20
-4.599623e+20
3.734486e+20
-4.302309e+20
-6.445580e+20
1.888529e+20
-6.148266e+20
2.185843e+20
-2.285734e+20
-1.032253e+21
3.398859e+19
-4.131691e+20
4.129659e+20
-3.834377e+20
-1.652779e+21
-4.701217e+20
-1.033695e+21
-2.075598e+20
-6.547174e+20
-1.451121e+21
-6.249861e+20
-1.421390e+21
-5.902187e+18
-3.730243e+20
-1.169428e+21
-3.432930e+20
-7.904506e+20
4.296027e+19
-5.278887e+20
-9.750463e+20
-1.416354e+20
-9.453150e+20
-1.119041e+20
-5.590617e+20
4.999039e+20
-2.964998e+20
-7.509334e+20
8.247753e+19
-7.139261e+20
1.122089e+20
-1.021181e+20
-8.985218e+20
-5.380481e+20
-9.852058e+20
-1.517949e+20
-5.189170e+20
-1.082490e+21
1.001669e+20
-7.035126e+20
1.298982e+20
-3.245354e+20
-1.120939e+21
-5.469743e+19
-8.583770e+20
3.242799e+20
-4.721238e+20
-1.275803e+21
-9.314646e+19
-6.567194e+20
1.694155e+20
-6.269881e+20
-1.081422e+21
-2.480108e+20
-1.044414e+21
1.309665e+20
-4.326065e+20
-7.924526e+20
3.368229e+19
-4.134754e+20
-4.572575e+19
-8.494053e+20
-1.063732e+21
-2.375974e+20
-1.034001e+21
-2.005901e+20
-6.550237e+20
-1.451427e+21
-3.851858e+20
-8.396194e+20
-6.208487e+18
-8.026121e+20
-1.606292e+21
-4.236348e+20
-9.944837e+20
-1.610728e+20
-6.082305e+20
2.179045e+20
-5.784992e+20
-9.383453e+20
4.698662e+20
-3.265374e+20
5.068735e+20
5.243991e+19
-7.439637e+20
8.217123e+19
-4.814017e+20
2.355938e+20
-5.680857e+20
-1.364489e+21
-1.818325e+20
-9.855121e+20
8.072949e+19
-7.156741e+20
-1.170108e+21
-3.366968e+20
-1.140376e+21
4.228046e+19
-5.212925e+20
-1.324972e+21
-4.915612e+20
-5.021614e+20
3.239736e+20
-4.724301e+20
-6.867571e+20
1.393779e+20
-6.570257e+20
1.691092e+20
-2.780484e+20
-1.074452e+21
-1.548647e+19
-8.118901e+20
3.707668e+20
-4.329128e+20
-1.229316e+21
-5.123208e+20
-1.083170e+21
-2.497589e+20
-1.053438e+21
-1.500596e+21
-6.671852e+20
-1.470865e+21
-5.537725e+19
-4.152234e+20
-1.218903e+21
-3.854921e+20
-8.326497e+20
-6.514786e+18
-5.700878e+20
6.052931e+20
-1.911105e+20
-9.875141e+20
-1.613791e+20
-6.085368e+20
4.577048e+20
-3.459748e+20
-7.931325e+20
4.027843e+19
-7.634011e+20
7.000976e+19
-1.515932e+20
-9.479968e+20
-5.802472e+20
-1.034681e+21
-2.012699e+20
-5.611161e+20
-1.131965e+21
5.069186e+19
-7.457117e+20
8.042319e+19
-3.667345e+20
-1.170414e+21
-1.041725e+20
-9.005761e+20
2.748048e+20
-5.215988e+20
-1.318002e+21
-1.426215e+20
-9.390251e+20
1.272164e+20
-6.764632e+20
-1.123621e+21
-2.974859e+20
-1.093889e+21
8.876738e+19
-4.820816e+20
-8.419277e+20
-8.516811e+18
-4.629504e+20
-9.520081e+19
-8.916044e+20
-1.113207e+21
-2.797965e+20
-1.083476e+21
-2.500652e+20
-6.972228e+20
-1.500902e+21
-4.346608e+20
-8.818185e+20
-5.568355e+19
-8.520872e+20
-1.648491e+21
-4.731099e+20
-1.036683e+21
-2.105479e+20
-6.577055e+20
1.757053e+20
-6.279742e+20
-9.878204e+20
4.276671e+20
-3.760124e+20
4.573985e+20
1.024081e+19
-7.934388e+20
-3.965853e+20
-5.308768e+20
-2.504387e+20
-6.102848e+20
-1.850522e+21
-2.313075e+20
-5.911537e+20
3.125443e+19
-3.285917e+20
-1.212307e+21
5.038556e+19
-1.182576e+21
8.011689e+19
-5.707676e+20
-9.306137e+20
-5.410362e+20
-5.516364e+20
-1.547830e+20
-5.219051e+20
-1.522036e+21
9.717878e+19
-1.143058e+21
1.269101e+20
-7.640810e+20
-1.123927e+21
-4.942430e+20
-8.613651e+20
7.578492e+20
-4.751119e+20
-8.422340e+20
-5.617959e+20
-6.888114e+20
-2.992339e+20
-6.590801e+20
-1.550071e+21
-2.801028e+20
-1.513064e+21
3.317051e+20
-9.012559e+20
-1.261102e+21
-8.715246e+20
-8.821248e+20
-4.852713e+20
-6.195628e+20
1.265366e+20
-2.405855e+20
-1.473547e+21
-2.035782e+20
-1.094569e+21
4.082297e+20
4.838354e+19
-8.426075e+20
4.273608e+20
-8.056002e+20
4.570922e+20
-1.937923e+20
-5.609144e+20
-6.297223e+20
-6.403225e+20
-2.507450e+20
-6.105911e+20
-1.610722e+21
1.216802e+18
-1.231744e+21
3.822408e+19
-8.527670e+20
-1.212613e+21
-8.230357e+20
-9.500512e+20
-2.039518e+20
-5.710739e+20
-9.309200e+20
-1.848206e+20
-5.519427e+20
7.774135e+19
-2.821048e+20
-1.173096e+21
9.687248e+19
-1.143365e+21
4.758498e+20
-5.242807e+20
-8.914028e+20
-4.945493e+20
-5.051495e+20
-5.812333e+20
-9.410795e+20
-1.591964e+21
-3.292715e+20
-1.562233e+21
-2.922643e+20
-1.183255e+21
-1.543101e+21
-4.757844e+19
-9.312935e+20
3.386748e+20
-9.015622e+20
3.684061e+20
-5.153090e+20
-6.496004e+20
-2.527470e+20
-2.633472e+20
1.262303e+20
-2.336159e+20
-1.473853e+21
3.781921e+20
-8.547690e+20
4.079234e+20
-8.250377e+20
-8.356379e+20
-4.460604e+20
-5.730759e+20
1.730235e+20
-6.597599e+20
-1.892721e+21
-6.300286e+20
-6.406288e+20
-1.094468e+19
-3.780668e+20
-1.261782e+21
8.186460e+18
-1.232051e+21
3.791778e+19
-6.129667e+20
-9.800888e+20
-5.832353e+20
-6.011115e+20
-2.042581e+20
-5.641042e+20
-1.571511e+21
4.770372e+19
-1.185257e+21
7.743505e+19
-8.062801e+20
-1.166126e+21
-5.437181e+20
-9.035642e+20
7.083741e+20
-5.245870e+20
-8.844331e+20
-6.112709e+20
-7.382865e+20
-3.414330e+20
-7.085551e+20
-1.592270e+21
-3.223019e+20
-1.562539e+21
2.895060e+20
-9.507310e+20
3.192374e+20
-9.137237e+20
-9.315998e+20
-5.347464e+20
-6.617619e+20
7.706153e+19
-2.827846e+20
-1.515746e+21
-2.530533e+20
-1.136768e+21
3.587546e+20
-1.091522e+18
-8.848066e+20
3.778858e+20
-8.550753e+20
4.148931e+20
-2.432674e+20
-6.031135e+20
-6.719214e+20
-6.897975e+20
-2.929441e+20
-6.600662e+20
-1.893027e+21
-4.098230e+19
-1.281219e+21
-1.125098e+19
-8.949661e+20
-1.262088e+21
-8.652348e+20
-9.922503e+20
-2.534268e+20
-6.132730e+20
-9.803951e+20
-2.342957e+20
-5.941418e+20
2.826629e+19
-3.315799e+20
-1.215295e+21
4.739742e+19
-1.185564e+21
4.336507e+20
-5.737557e+20
-9.336019e+20
-5.440244e+20
-5.546246e+20
-1.577711e+20
-9.905545e+20
-1.990685e+21
-3.714706e+20
-1.611708e+21
-3.417393e+20
-1.225454e+21
3.723797e+19
-8.977754e+19
-1.330015e+21
2.891997e+20
-9.437613e+20
3.189311e+20
-5.647840e+20
-6.917995e+20
-3.022221e+20
-6.620682e+20
8.403119e+19
-2.830909e+20
-1.516052e+21
3.287170e+20
-9.042441e+20
3.657243e+20
-8.745127e+20
-8.851129e+20
-4.882595e+20
-6.225510e+20
1.235484e+20
-7.019590e+20
-1.942196e+21
-6.722277e+20
-6.901038e+20
-6.041974e+19
-4.202659e+20
-1.311257e+21
-4.128860e+19
-1.274250e+21
-1.155728e+19
-6.624417e+20
-1.022288e+21
-6.327104e+20
-6.433106e+20
-2.537331e+20
-6.135793e+20
-1.613710e+21
-1.771339e+18
-1.234732e+21
3.523594e+19
-8.557551e+20
-1.215601e+21
-5.859172e+20
-9.530393e+20
6.661750e+20
-5.740620e+20
-9.339082e+20
-6.534701e+20
-7.877615e+20
-3.909081e+20
-7.507542e+20
-1.193079e+19
-3.717769e+20
-1.604738e+21
2.400310e+20
-9.929301e+20
2.697623e+20
-9.631988e+20
-9.737989e+20
-5.842215e+20
-7.112370e+20
3.486243e+19
-3.322597e+20
-1.565221e+21
-2.952524e+20
-1.186243e+21
3.165555e+20
-5.056658e+19
-9.342817e+20
3.356867e+20
-9.045504e+20
3.654180e+20
-5.182971e+20
-6.525886e+20
-2.557351e+20
-7.319966e+20
-3.424191e+20
-7.022653e+20
-1.942502e+21
-9.045736e+19
-1.323418e+21
-6.072604e+19
-9.444411e+20
-1.304287e+21
-9.147098e+20
-1.041725e+21
-2.956259e+20
-6.627480e+20
-1.022594e+21
-6.330167e+20
-6.436169e+20
-1.393282e+19
-3.810549e+20
-1.264770e+21
5.198318e+18
-1.235039e+21
3.492964e+19
-6.159548e+20
-9.830769e+20
-5.862235e+20
-6.040996e+20
-2.072462e+20
-1.032754e+21
-6.431762e+20
-6.537764e+20
-1.886737e+21
-1.583837e+20
-1.042099e+21
2.278695e+20
-1.392526e+20
-1.372214e+21
2.397247e+20
-9.932364e+20
2.767320e+20
-6.142591e+20
-9.741052e+20
-5.772518e+20
-9.443739e+20
2.673868e+20
-9.245939e+19
-1.332696e+21
2.865179e+20
-9.537191e+20
3.162492e+20
-9.167118e+20
-9.345880e+20
-5.377345e+20
-8.975807e+20
-1.587573e+20
-9.842647e+20
-1.751564e+21
-4.888721e+20
-4.994723e+20
-1.098948e+20
-4.697410e+20
-1.353456e+21
-9.076366e+19
-1.323725e+21
-5.375638e+19
-9.447474e+20
-1.304594e+21
-9.077402e+20
-4.599550e+20
-6.310158e+19
-4.302237e+20
-1.663185e+21
-4.397044e+19
-1.284207e+21
-1.423912e+19
-8.979542e+20
-1.265076e+21
-8.682229e+20
-1.228069e+21
3.838693e+20
-3.834305e+20
8.865379e+20
-4.701145e+20
-8.299606e+20
-4.403831e+20
-8.002293e+20
-5.412990e+19
-4.212520e+20
-1.654213e+21
-3.499876e+19
-1.275236e+21
-5.267435e+18
-7.725672e+20
-7.904434e+20
-3.935899e+20
-7.607120e+20
-1.461263e+19
-3.744588e+20
-1.614696e+21
-3.447275e+20
-3.553277e+20
3.424983e+19
-3.255963e+20
-1.209311e+21
5.338096e+19
-7.139188e+20
5.487736e+20
-3.349415e+20
-6.947877e+20
-3.052102e+20
-1.130718e+21
-3.846182e+20
-7.517404e+20
-1.984701e+21
-3.654871e+20
-1.605724e+21
-3.357558e+20
-1.110332e+21
-1.120932e+21
-7.240783e+20
-1.091200e+21
-3.451010e+20
-7.049471e+20
-1.072069e+21
-6.752158e+20
-6.858160e+20
-2.962385e+20
-6.560847e+20
-1.547076e+21
1.885539e+20
-1.044407e+21
2.182852e+20
-6.654299e+20
6.045385e+20
-6.356986e+20
-6.462987e+20
-2.494453e+20
-1.082229e+21
-6.853753e+20
-7.032514e+20
-1.936212e+21
-2.005828e+20
-1.091574e+21
1.783944e+20
-1.814517e+20
-1.421689e+21
1.975256e+20
-1.035435e+21
2.272569e+20
-6.564582e+20
-1.023580e+21
-6.267269e+20
-9.865730e+20
2.179117e+20
-1.419344e+20
-1.374896e+21
2.370428e+20
-9.959182e+20
2.740501e+20
-9.661869e+20
-9.767871e+20
-5.872096e+20
-9.470558e+20
-2.009564e+20
-1.033740e+21
-1.801040e+21
-5.310712e+20
-5.489473e+20
-1.520939e+20
-5.119401e+20
-1.402931e+21
-1.329628e+20
-1.373200e+21
-1.032314e+20
-9.869465e+20
-1.354069e+21
-9.572152e+20
-5.021541e+20
-1.125766e+20
-4.724228e+20
-1.705384e+21
-9.344550e+19
-1.326407e+21
-6.371418e+19
-9.474293e+20
3.225391e+20
-9.176980e+20
-1.277544e+21
3.416702e+20
-4.329055e+20
8.370628e+20
-4.665228e+19
-8.794357e+20
-4.825822e+20
-8.497044e+20
-1.036050e+20
-4.634511e+20
-1.703688e+21
-8.447382e+19
-1.317435e+21
-5.474249e+19
-1.287704e+21
-8.326425e+20
-4.430650e+20
-8.029111e+20
-4.133337e+20
-4.239338e+20
-1.656895e+21
-3.942025e+20
-4.048027e+20
-7.949277e+18
-3.750714e+20
-1.608032e+21
1.118186e+19
-7.633939e+20
5.065745e+20
-3.844166e+20
-7.442627e+20
-3.474093e+20
-1.180193e+21
-4.340933e+20
-7.939395e+20
-2.034176e+21
-4.149622e+20
-1.647923e+21
-3.852308e+20
-1.152531e+21
-1.170407e+21
-7.735533e+20
-1.133399e+21
-3.945760e+20
-7.544222e+20
-1.114268e+21
-7.246909e+20
-7.352911e+20
-3.384376e+20
-7.055597e+20
-1.589275e+21
1.390788e+20
-1.093882e+21
1.760861e+20
-7.149049e+20
5.550634e+20
-6.778977e+20
-6.957738e+20
-2.989204e+20
-1.131704e+21
-7.348503e+20
-7.454505e+20
-1.978412e+21
-2.427819e+20
-1.141049e+21
1.289194e+20
-2.309268e+20
-1.463888e+21
1.553265e+20
-1.092187e+21
1.777818e+20
-7.059333e+20
-1.065779e+21
-6.689260e+20
-1.028772e+21
1.684366e+20
-1.914095e+20
-1.424371e+21
1.948437e+20
-1.038117e+21
2.172991e+20
-1.015662e+21
-1.026262e+21
-6.294087e+20
-9.892549e+20
-2.431555e+20
-6.175535e+20
-1.850515e+21
-5.805462e+20
-5.911464e+20
-1.942930e+20
-5.686911e+20
-1.452406e+21
-1.824378e+20
-1.415399e+21
-1.454305e+20
-1.029146e+21
-1.403544e+21
-1.006690e+21
-5.516292e+20
-1.547757e+20
-5.146219e+20
-1.762135e+21
-1.429206e+20
-1.375882e+21
-1.059133e+20
-1.338874e+21
2.803400e+20
-9.671730e+20
-1.327019e+21
2.921951e+20
-4.751046e+20
7.948637e+20
-4.526493e+20
-9.289107e+20
-5.320573e+20
-8.919035e+20
-1.458041e+20
-5.056502e+20
-1.753163e+21
-4.831948e+20
-1.366910e+21
-9.694160e+19
-1.329903e+21
-8.893935e+20
-4.925400e+20
-8.523862e+20
-4.555328e+20
-4.661330e+20
-1.699094e+21
-4.436776e+20
-4.542778e+20
-5.742434e+19
-4.172705e+20
-1.650232e+21
-4.556916e+19
-8.128689e+20
4.570994e+20
-4.266157e+20
-7.864618e+20
-3.896084e+20
-1.229668e+21
-4.835684e+20
-8.434145e+20
-2.076376e+21
-4.571613e+20
-1.704674e+21
-4.347059e+20
-1.202006e+21
-1.212606e+21
-8.157524e+20
-1.175599e+21
-4.440511e+20
-8.038973e+20
-1.163743e+21
-7.668900e+20
-7.774902e+20
-3.951886e+20
-7.550348e+20
-8.935394e+18
9.687974e+19
-1.136081e+21
1.338870e+20
-7.643800e+20
5.055884e+20
-7.273727e+20
-7.379729e+20
-3.411195e+20
-7.155175e+20
-7.843254e+20
-7.949256e+20
-2.027887e+21
-2.922570e+20
-1.175972e+21
7.944433e+19
-2.804018e+20
-1.513363e+21
1.058514e+20
-1.127110e+21
1.283068e+20
-7.554083e+20
-1.115254e+21
-7.184010e+20
-1.078247e+21
1.335135e+20
-2.408846e+20
-1.473846e+21
1.453687e+20
-1.087592e+21
1.823760e+20
-1.065137e+21
-1.075737e+21
-6.788838e+20
-1.038730e+21
-2.926305e+20
-6.524767e+20
-1.899990e+21
-6.300213e+20
-6.406215e+20
-2.437681e+20
-6.036142e+20
-1.851127e+21
-2.319129e+20
-1.464874e+21
-1.949056e+20
-1.078621e+21
-1.438467e+21
-1.056165e+21
-9.503502e+20
-2.042508e+20
-5.640970e+20
-1.672435e+20
-1.923956e+20
-1.425357e+21
-1.553883e+20
-1.388349e+21
2.308649e+20
-1.002096e+21
-1.376494e+21
2.427201e+20
-9.902410e+20
7.453887e+20
-4.875724e+20
-9.783858e+20
-5.815324e+20
-9.413785e+20
-1.952791e+20
-5.551253e+20
-1.788086e+21
-5.326699e+20
-1.416385e+21
-1.464167e+20
-1.379378e+21
-1.273563e+21
-5.420151e+20
-5.526153e+20
-5.050078e+20
-5.156080e+20
-1.399323e+21
-4.786007e+20
-5.037528e+20
-4.561454e+20
-4.667456e+20
-1.350461e+21
-4.297383e+20
-8.623440e+20
7.568703e+20
-8.253367e+20
-8.359369e+20
-8.983750e+19
-1.264591e+21
-5.330434e+20
-1.242136e+21
-2.125851e+21
-5.066363e+20
-2.088843e+21
-4.841810e+20
-9.022348e+20
-1.611327e+21
-8.652275e+20
-8.758277e+20
-8.282202e+20
-8.533723e+20
7.658420e+20
-8.163650e+20
-8.269652e+20
-7.793578e+20
-8.045099e+20
-5.841045e+19
-3.018413e+20
-1.185556e+21
4.336579e+20
-1.148549e+21
4.561133e+20
-4.276018e+20
-1.136694e+21
-3.905945e+20
-4.011947e+20
-8.192485e+20
-8.444006e+20
-2.426608e+21
-3.417321e+20
-1.225447e+21
-3.047248e+20
-3.298769e+20
-1.213592e+21
-2.928696e+20
-1.176585e+21
4.426296e+20
-1.139577e+21
-1.164730e+21
-4.186301e+20
-1.127722e+21
8.403844e+19
-6.250537e+20
-1.523321e+21
9.589362e+19
-1.486313e+21
1.329009e+20
-7.508142e+20
-1.459906e+21
-7.283588e+20
-7.389590e+20
-6.913515e+20
-7.019517e+20
-1.585667e+21
-6.794964e+20
-6.900966e+20
-6.424891e+20
-6.530893e+20
-1.536804e+21
-6.160820e+20
-1.514349e+21
1.048653e+20
-1.477342e+21
1.418726e+20
-7.418425e+20
-9.998253e+20
-2.537259e+20
-2.643261e+20
-2.167186e+20
-2.273188e+20
-1.809526e+21
-2.048634e+20
-1.088579e+21
-1.678561e+20
-1.051571e+21
-1.062171e+21
-1.560009e+20
-1.039716e+21
1.045160e+21
-5.370475e+20
-1.013309e+21
-2.672095e+20
-9.908536e+20
-2.447542e+20
-9.538463e+20
-1.837561e+21
-2.183471e+20
-1.815106e+21
-1.958917e+20
-1.079607e+21
-1.323038e+21
-5.769383e+20
-5.875384e+20
-5.544829e+20
-5.650831e+20
-2.147290e+21
-5.280758e+20
-5.386760e+20
-5.056204e+20
-5.162206e+20
-1.399936e+21
-4.792133e+20
-8.972671e+20
7.219472e+20
-8.748118e+20
-8.854120e+20
-1.393126e+20
-8.484047e+20
-5.679666e+20
-1.291611e+21
-2.175326e+21
-5.561114e+20
-2.138318e+21
-5.191041e+20
-9.371579e+20
-3.098745e+19
-9.147026e+20
-9.253027e+20
-8.776953e+20
-8.882955e+20
7.163669e+20
-8.658401e+20
-8.764403e+20
-8.288328e+20
-8.394330e+20
-9.333360e+19
-3.513163e+20
-1.235031e+21
3.841829e+20
-1.198024e+21
4.211901e+20
-4.770769e+20
-1.186169e+21
-4.400696e+20
-4.506698e+20
-8.687236e+20
-8.793238e+20
-2.476083e+21
-3.912071e+20
-1.274922e+21
-3.541998e+20
-3.648000e+20
-1.263067e+21
-3.423447e+20
-1.226060e+21
3.931545e+20
-1.189052e+21
-1.199653e+21
-4.681052e+20
-1.177197e+21
3.456338e+19
-6.745287e+20
-1.558244e+21
4.641856e+19
-1.535788e+21
8.342584e+19
-8.002893e+20
-1.509381e+21
-7.632820e+20
-7.884341e+20
-7.408266e+20
-7.514268e+20
-1.635142e+21
-7.144195e+20
-7.395716e+20
-6.919641e+20
-7.025643e+20
4.353507e+19
-6.655571e+20
-1.549272e+21
5.539024e+19
-1.526817e+21
9.239753e+19
-7.913176e+20
-1.500410e+21
-3.032009e+20
-3.138011e+20
-2.661936e+20
-2.767938e+20
-1.859001e+21
-2.397865e+20
-1.138054e+21
-2.173312e+20
-1.101046e+21
-1.111646e+21
-1.909241e+20
-1.089191e+21
9.956845e+20
-5.865225e+20
-5.971227e+20
-1.015177e+21
-1.025777e+21
-2.942292e+20
-1.003321e+21
-1.887036e+21
-2.678221e+20
-1.850029e+21
-2.453668e+20
-1.129082e+21
-1.372513e+21
-6.264133e+20
-6.370135e+20
-5.894060e+20
-6.145581e+20
-2.196765e+21
-5.775509e+20
-5.881510e+20
-5.405436e+20
-5.656957e+20
-1.449411e+21
-5.286884e+20
-9.467422e+20
6.724721e+20
-9.097349e+20
-9.348870e+20
-1.887876e+20
-8.978797e+20
-6.174416e+20
-1.326534e+21
-5.949863e+20
-6.055865e+20
-2.187793e+21
-5.685792e+20
-9.866330e+20
-6.591060e+19
-9.641776e+20
-9.747778e+20
-9.271703e+20
-9.377705e+20
6.814438e+20
-9.153152e+20
-9.259153e+20
-8.783079e+20
-8.889081e+20
-1.428087e+20
-3.862395e+20
-1.284507e+21
3.347078e+20
-1.247499e+21
3.717151e+20
-5.120000e+20
-1.235644e+21
-4.895446e+20
-5.001448e+20
-9.181987e+20
-9.287988e+20
-2.511006e+21
-4.406822e+20
-1.324397e+21
-4.036749e+20
-4.142751e+20
-1.297990e+21
-3.918197e+20
-1.275535e+21
3.436795e+20
-1.238528e+21
-1.249128e+21
-5.030283e+20
-1.226672e+21
-1.491168e+19
-7.240038e+20
-1.607719e+21
1.149542e+19
-1.585264e+21
3.395078e+19
-8.497643e+20
-1.558856e+21
-8.127570e+20
-8.233572e+20
-7.903017e+20
-8.009019e+20
-1.917448e+21
-7.638946e+20
-7.744948e+20
-7.414392e+20
-7.520394e+20
-5.939994e+18
-7.150321e+20
-1.598747e+21
2.046710e+19
-1.576292e+21
4.292247e+19
-8.407926e+20
-1.549885e+21
-3.381241e+20
-1.061768e+21
-3.156687e+20
-3.262689e+20
-1.908476e+21
-2.892616e+20
-1.172977e+21
-2.668062e+20
-1.150521e+21
-1.161122e+21
-2.403991e+20
-1.124114e+21
9.462094e+20
-6.359976e+20
-6.465978e+20
-1.064652e+21
-1.075252e+21
-3.291524e+20
-1.052796e+21
-1.936512e+21
-3.172972e+20
-1.899504e+21
-2.802899e+20
-1.178557e+21
-1.421988e+21
-6.758884e+20
-6.864886e+20
-6.388811e+20
-6.494813e+20
-2.246240e+21
-6.270259e+20
-6.376261e+20
-5.900186e+20
-6.006188e+20
-1.498886e+21
-5.781634e+20
-9.962173e+20
6.229971e+20
-9.592100e+20
-9.698102e+20
-2.382627e+20
-9.473548e+20
-6.669167e+20
-1.376009e+21
-6.299094e+20
-6.550615e+20
-2.237269e+21
-6.180542e+20
-1.036108e+21
-1.153857e+20
-9.991008e+20
-1.024253e+21
-9.766454e+20
-9.872456e+20
6.319687e+20
-9.502383e+20
-9.753904e+20
-9.277829e+20
-9.383831e+20
-1.922837e+20
-4.357146e+20
-1.319430e+21
2.852327e+20
-1.296974e+21
3.222400e+20
-5.614751e+20
-1.270567e+21
-5.390197e+20
-5.496199e+20
-9.676737e+20
-9.782739e+20
-2.560481e+21
-4.756053e+20
-1.373872e+21
-4.531500e+20
-4.637502e+20
-1.347465e+21
-4.267429e+20
-1.325010e+21
2.942044e+20
-1.288003e+21
-1.298603e+21
-1.250995e+21
-1.261596e+21
-6.438674e+19
-7.734789e+20
-1.657194e+21
-3.797964e+19
-1.620187e+21
-1.552428e+19
-8.992394e+20
-1.608331e+21
-8.622321e+20
-8.728323e+20
-8.252248e+20
-8.503769e+20
7.034547e+19
-8.133696e+20
-8.239698e+20
-7.763624e+20
-8.015145e+20
-5.541505e+19
-7.645072e+20
-1.648222e+21
-2.900796e+19
-1.611215e+21
-6.552594e+18
-8.902677e+20
-1.599360e+21
-3.875991e+20
-1.096691e+21
-3.651438e+20
-3.757439e+20
-1.957951e+21
-3.387367e+20
-1.222452e+21
-3.017294e+20
-1.199996e+21
-1.210597e+21
-2.898742e+20
-1.173589e+21
9.112863e+20
-6.854727e+20
-6.960728e+20
-1.114127e+21
-1.124727e+21
-3.786274e+20
-1.087720e+21
-1.985987e+21
-3.667723e+20
-1.948979e+21
-3.297650e+20
-1.213480e+21
-1.471463e+21
-7.253634e+20
-7.359636e+20
-6.883561e+20
-6.989563e+20
-2.281163e+21
-6.765010e+20
-6.871012e+20
-6.394937e+20
-6.500939e+20
-1.533809e+21
-6.276385e+20
-1.045692e+21
5.735220e+20
-1.008685e+21
6.105293e+20
-2.731858e+20
-9.968299e+20
-7.163917e+20
-1.425484e+21
-6.793845e+20
-6.899847e+20
-2.286744e+21
-6.675293e+20
-1.085583e+21
-1.648607e+20
-1.048576e+21
-1.059176e+21
-1.026120e+21
-1.036721e+21
5.824937e+20
-9.997134e+20
-1.010314e+21
-9.772580e+20
-9.878582e+20
-2.417588e+20
-4.851896e+20
-1.368905e+21
2.503096e+20
-1.346449e+21
2.727650e+20
-6.109501e+20
-1.320042e+21
-5.739429e+20
-1.297587e+21
-5.514875e+20
-1.027749e+21
-2.609956e+21
-5.250804e+20
-1.408795e+21
-5.026250e+20
-5.132252e+20
-1.396940e+21
-4.762179e+20
-1.359933e+21
2.447294e+20
-1.337478e+21
-1.348078e+21
-1.300470e+21
-1.311071e+21
-5.649712e+20
-8.229539e+20
-1.706669e+21
-8.745470e+19
-1.669662e+21
-5.044742e+19
-9.487144e+20
-2.799205e+19
-9.117072e+20
-9.223073e+20
-8.746999e+20
-8.853001e+20
2.087041e+19
-8.628447e+20
-8.734449e+20
-8.258374e+20
-8.364376e+20
-1.048901e+20
-8.139822e+20
-1.697697e+21
-7.848302e+19
-1.660690e+21
-4.147574e+19
-9.397428e+20
-1.648835e+21
-4.370742e+20
-1.146166e+21
-4.000669e+20
-4.252190e+20
-2.007426e+21
-3.882117e+20
-1.271927e+21
-3.512044e+20
-1.234920e+21
-1.260072e+21
-3.393493e+20
-1.223064e+21
8.618112e+20
-7.203958e+20
-7.455479e+20
-1.163602e+21
-1.174202e+21
-4.281025e+20
-1.137195e+21
-2.020910e+21
-4.162473e+20
-1.998454e+21
-3.792400e+20
-1.262955e+21
-1.506386e+21
-7.602866e+20
-7.854387e+20
-7.378312e+20
-7.484314e+20
-2.330638e+21
-7.114241e+20
-7.365762e+20
-6.889687e+20
-6.995689e+20
4.653047e+19
-6.625617e+20
-1.080615e+21
-1.105768e+21
5.716544e+20
5.610542e+20
-3.226609e+20
-1.031753e+21
-1.930020e+21
1.548556e+20
-7.288595e+20
-7.394597e+20
-2.321667e+21
-2.332267e+21
4.947563e+20
-2.143358e+20
-1.098051e+21
-1.108651e+21
-2.690858e+21
5.436188e+20
-1.654733e+20
-1.049188e+21
-1.059789e+21
-2.641996e+21
6.070332e+20
-2.912338e+20
-5.346647e+20
-1.418380e+21
-1.428980e+21
2.484420e+20
2.232899e+20
-6.604252e+20
-1.369517e+21
-2.253232e+21
2.973045e+20
-5.864106e+20
-1.077224e+21
-2.659431e+21
-2.204370e+21
1.715440e+20
-5.375482e+20
-5.627003e+20
-1.446415e+21
-2.155507e+21
2.204064e+20
2.098062e+20
-1.372401e+21
-1.397553e+21
-2.979760e+21
2.692689e+20
-6.144462e+20
-8.578771e+20
-1.756144e+21
-1.766744e+21
-8.932229e+19
-9.992248e+19
-9.836376e+20
-1.692730e+21
-2.590997e+21
6.580321e+20
-9.241749e+20
-9.347751e+20
-1.643867e+21
-2.542134e+21
7.068946e+20
-8.753125e+20
-8.859127e+20
-1.769628e+21
-2.478720e+21
-1.173579e+20
-1.279581e+20
-1.710165e+21
-1.720765e+21
-2.604480e+21
-6.849543e+19
-4.865492e+20
-1.195641e+21
-2.079356e+21
1.169672e+21
-4.125347e+20
-4.376868e+20
-1.321402e+21
-2.030494e+21
3.454199e+20
3.348197e+20
-3.888243e+20
-1.272539e+21
-8.174783e+20
8.599436e+20
8.493435e+20
-1.198525e+21
-1.223677e+21
-2.107392e+21
4.431448e+20
-4.405703e+20
-4.511705e+20
-2.047929e+21
-2.058530e+21
3.173843e+20
7.395347e+19
-8.097616e+20
-8.203618e+20
-2.417121e+21
8.319080e+20
-7.502990e+20
-7.608992e+20
-7.714994e+20
-2.368258e+21
8.807705e+20
-2.944595e+18
-7.120367e+20
-1.130091e+21
-1.140691e+21
5.221793e+20
5.115792e+20
-1.070628e+21
-1.081228e+21
-1.964943e+21
1.053805e+20
-7.783346e+20
-7.889348e+20
-2.371142e+21
-2.381742e+21
4.598332e+20
-2.638108e+20
-1.147526e+21
-1.158126e+21
-2.740333e+21
5.086957e+20
-2.149484e+20
-1.098663e+21
-1.109264e+21
-2.691471e+21
5.575581e+20
-3.261570e+20
-5.841397e+20
-1.467855e+21
-1.478455e+21
1.989670e+20
1.883668e+20
-7.099003e+20
-1.418992e+21
-2.302707e+21
2.478294e+20
-6.358857e+20
-1.112147e+21
-2.708906e+21
-2.719506e+21
1.220689e+20
-5.870232e+20
-5.976234e+20
-1.495890e+21
-2.204983e+21
1.709314e+20
1.603312e+20
-1.421876e+21
-1.432476e+21
-3.029235e+21
2.197938e+20
-6.639213e+20
-9.073521e+20
-1.791067e+21
-1.816219e+21
-1.387974e+20
-1.493975e+20
-1.033113e+21
-1.742205e+21
-2.625920e+21
6.085570e+20
-9.736500e+20
-9.842502e+20
-1.693342e+21
-2.577057e+21
6.574195e+20
-9.247875e+20
-9.353877e+20
-1.819103e+21
-2.528195e+21
-1.522810e+20
-1.774331e+20
-1.759640e+21
-1.770240e+21
6.056735e+20
-1.034186e+20
-5.360243e+20
-1.245116e+21
-2.128832e+21
1.120197e+21
-4.620097e+20
-4.726099e+20
-1.370877e+21
-2.079969e+21
2.959448e+20
2.853446e+20
-4.237475e+20
-1.322014e+21
-8.669534e+20
8.104686e+20
7.998684e+20
-7.823386e+20
-1.258600e+21
-2.156867e+21
3.936698e+20
-4.900453e+20
-5.006455e+20
-2.082853e+21
-2.108005e+21
2.679092e+20
2.447841e+19
-8.592367e+20
-1.568329e+21
-2.452044e+21
7.824330e+20
-7.997740e+20
-8.103742e+20
-8.209744e+20
-2.403181e+21
8.312954e+20
-5.241966e+19
-7.615118e+20
-1.179566e+21
-1.190166e+21
4.872562e+20
4.621041e+20
-1.120103e+21
-1.130703e+21
-2.014418e+21
7.045737e+19
-8.278096e+20
-8.384098e+20
-2.420617e+21
-2.431217e+21
4.103581e+20
-2.987340e+20
-1.197001e+21
-1.207601e+21
-2.789808e+21
4.592206e+20
-2.498715e+20
-1.148139e+21
-1.158739e+21
-2.740946e+21
5.080831e+20
-3.756320e+20
-6.190629e+20
-1.517330e+21
-1.527930e+21
1.494919e+20
1.388917e+20
-7.448234e+20
-1.468467e+21
-2.352183e+21
1.983544e+20
-6.853607e+20
-1.161622e+21
-2.743829e+21
-2.768981e+21
7.259383e+19
-6.364983e+20
-6.470985e+20
-1.530814e+21
-2.254458e+21
1.214563e+20
1.108561e+20
-1.471351e+21
-1.481951e+21
-3.064158e+21
1.703188e+20
-7.133963e+20
-9.568272e+20
-1.840542e+21
-1.851142e+21
-1.882724e+20
-1.988726e+20
-1.082588e+21
-1.791680e+21
-2.675395e+21
5.736339e+20
-1.023125e+21
-1.033725e+21
-1.742817e+21
-2.160871e+21
6.224964e+20
-9.742626e+20
-9.848628e+20
-1.868578e+21
-2.577670e+21
-2.017561e+20
-2.123563e+20
-1.809115e+21
-1.819715e+21
5.561985e+20
-1.528936e+20
-5.709475e+20
-1.294591e+21
-2.178307e+21
1.070722e+21
-5.114848e+20
-5.220850e+20
-1.405800e+21
-2.129444e+21
2.464698e+20
2.358696e+20
-4.732225e+20
-1.356938e+21
-1.614920e+21
7.609935e+20
7.503933e+20
-8.318137e+20
-1.308075e+21
-2.191790e+21
3.441947e+20
-5.395204e+20
-5.501206e+20
-2.132328e+21
-2.142928e+21
2.184342e+20
-2.499665e+19
-9.087118e+20
-1.617804e+21
-2.501519e+21
7.475098e+20
-8.492491e+20
-8.598493e+20
-8.704495e+20
-2.452657e+21
7.963723e+20
-1.018947e+20
-8.109868e+20
-1.229041e+21
-1.239641e+21
4.377811e+20
4.271809e+20
-1.169578e+21
-1.180178e+21
-2.063893e+21
2.098231e+19
-8.627328e+20
-8.878849e+20
-2.470092e+21
-2.480692e+21
3.608831e+20
-3.482090e+20
-1.231924e+21
-1.257076e+21
-2.839283e+21
4.097455e+20
-2.993466e+20
-1.183062e+21
-1.208214e+21
-2.790421e+21
4.586080e+20
-4.251071e+20
-1.134199e+21
-1.552253e+21
-1.577405e+21
1.000168e+20
8.941664e+19
-7.942985e+20
-1.503391e+21
-2.401658e+21
1.488793e+20
-7.348358e+20
-7.454360e+20
-2.793304e+21
-2.803905e+21
2.311877e+19
-6.859733e+20
-6.965735e+20
-1.580289e+21
-2.289381e+21
7.198123e+19
6.138104e+19
-1.520826e+21
-1.531426e+21
-3.113633e+21
1.353956e+20
-7.628714e+20
-1.006302e+21
-1.890017e+21
-1.900618e+21
-2.231956e+20
-2.483477e+20
-1.132063e+21
-1.841155e+21
-2.724870e+21
5.241588e+20
-1.058048e+21
-1.083200e+21
-1.792292e+21
-2.210346e+21
1.038683e+21
-5.435245e+20
-5.686766e+20
-1.452392e+21
1.098145e+21
2.144301e+20
2.038299e+20
-1.378377e+21
-1.403529e+21
2.738928e+20
2.632926e+20
-1.547612e+20
-8.638533e+20
-1.762120e+21
5.555859e+20
-1.026621e+21
-1.037221e+21
-1.920936e+21
-2.630029e+21
-2.686666e+20
-2.792668e+20
-9.883589e+20
-1.872074e+21
-2.115505e+21
2.458572e+20
2.352570e+20
-1.346950e+21
-1.357550e+21
-2.241265e+21
3.092716e+20
-5.889955e+20
-5.995957e+20
-2.181803e+21
-2.192403e+21
1.835110e+20
-7.447171e+19
-9.581868e+20
-1.667279e+21
-2.550994e+21
6.980348e+20
-8.841723e+20
-9.093244e+20
-9.199245e+20
-2.502132e+21
7.468972e+20
-1.368179e+20
-8.604619e+20
-1.278516e+21
-1.289116e+21
3.883061e+20
3.777059e+20
-1.204501e+21
-1.229653e+21
-2.113368e+21
4.371685e+20
-4.465466e+20
-4.571468e+20
-2.053906e+21
-2.064506e+21
7.770693e+20
6.797718e+19
-8.157379e+20
-8.263381e+20
-1.549982e+21
8.259318e+20
1.168396e+20
-7.668755e+20
-7.774756e+20
-3.305557e+21
-5.652835e+19
-9.402435e+20
-1.649336e+21
-2.067389e+21
-2.077990e+21
-4.151195e+20
-4.257197e+20
-1.309435e+21
-2.018527e+21
-2.902242e+21
-3.662571e+20
-1.249972e+21
-1.260572e+21
-2.842779e+21
-2.853380e+21
-1.180437e+19
-7.354484e+20
-7.460486e+20
-1.629764e+21
-2.338856e+21
3.705809e+19
-6.865859e+20
-1.570301e+21
-1.580901e+21
-3.163108e+21
8.592055e+19
-7.977946e+20
-1.055777e+21
-1.939492e+21
-1.950093e+21
-2.726706e+20
-2.832708e+20
-1.181538e+21
-1.890630e+21
-2.774345e+21
-2.238082e+20
-1.107523e+21
-1.118123e+21
-1.841767e+21
9.998077e+20
9.892075e+20
-5.929995e+20
-6.035997e+20
-1.501867e+21
1.048670e+21
1.649551e+20
1.543549e+20
-1.427852e+21
-1.438452e+21
2.244177e+20
2.138175e+20
-2.042363e+20
-9.133284e+20
-1.797044e+21
5.206627e+20
-1.076096e+21
-1.086696e+21
-1.970412e+21
-2.679504e+21
-3.035897e+20
-3.287418e+20
-1.037834e+21
-1.921549e+21
-2.164980e+21
2.109340e+20
2.003338e+20
-1.396425e+21
-1.407025e+21
-2.290740e+21
2.597965e+20
-6.239186e+20
-6.490707e+20
-2.231278e+21
-2.241878e+21
1.340360e+20
-1.093949e+20
-9.931100e+20
-1.716754e+21
-2.600469e+21
6.485597e+20
-9.336473e+20
-9.442475e+20
-9.693996e+20
-2.551607e+21
6.974222e+20
-1.862929e+20
-8.953850e+20
-1.313439e+21
-1.338591e+21
3.388310e+20
3.282308e+20
-1.253976e+21
-1.264576e+21
-2.162843e+21
3.876935e+20
-4.960216e+20
-5.066218e+20
-2.088829e+21
-2.099429e+21
2.619330e+20
1.850212e+19
-8.652130e+20
-8.758132e+20
-1.584905e+21
7.764567e+20
6.736458e+19
-8.163505e+20
-8.269507e+20
-3.340480e+21
-9.145149e+19
-9.897185e+20
-1.698811e+21
-2.116864e+21
-2.127465e+21
-4.500427e+20
-4.751948e+20
-2.057402e+21
-2.068002e+21
-2.951717e+21
-4.011802e+20
-1.284895e+21
-1.310047e+21
-2.892254e+21
-2.902855e+21
-6.127943e+19
-7.703716e+20
-7.955237e+20
-1.679239e+21
-2.388331e+21
-1.241697e+19
-7.215091e+20
-1.605224e+21
-1.630376e+21
-3.212583e+21
3.644549e+19
-8.472696e+20
-1.090700e+21
-1.988967e+21
-1.999568e+21
-3.221457e+20
-3.327459e+20
-1.216461e+21
-1.925553e+21
4.358089e+20
-2.732832e+20
-1.156998e+21
-1.167599e+21
-1.876691e+21
9.503327e+20
9.397325e+20
-6.424746e+20
-6.530748e+20
-1.536790e+21
1.013747e+21
1.154800e+20
1.048798e+20
-1.477327e+21
-1.487927e+21
1.894946e+20
1.643425e+20
-2.537113e+20
-9.628035e+20
-1.846519e+21
4.711877e+20
-1.111019e+21
-1.136171e+21
-2.019887e+21
-2.728979e+21
-3.530648e+20
-3.636650e+20
-1.087309e+21
-1.971024e+21
-2.214455e+21
1.614590e+20
1.508588e+20
-1.431348e+21
-1.456500e+21
-2.340215e+21
2.103214e+20
-6.733937e+20
-6.839939e+20
-2.280753e+21
-2.291353e+21
8.456091e+19
-1.588699e+20
-1.042585e+21
-1.751677e+21
-2.649944e+21
5.990847e+20
-9.831224e+20
-9.937226e+20
-1.004323e+21
-2.601082e+21
6.479471e+20
-2.357680e+20
-9.448601e+20
-1.362914e+21
-1.373514e+21
2.893560e+20
2.787558e+20
-1.303451e+21
-1.314051e+21
-2.197767e+21
3.382184e+20
-5.454967e+20
-5.560969e+20
-2.138304e+21
-2.148904e+21
2.270098e+20
-3.097294e+19
-9.146880e+20
-1.623780e+21
-1.634380e+21
7.415336e+20
1.788952e+19
-8.658256e+20
-8.764258e+20
-2.458633e+21
-1.409266e+20
-1.024642e+21
-1.748286e+21
-2.166340e+21
-2.176940e+21
-4.995177e+20
-5.101179e+20
-2.106877e+21
-2.117477e+21
-3.001192e+21
-4.506553e+20
-1.334370e+21
-1.344971e+21
-2.941730e+21
-2.952330e+21
-1.107545e+20
-8.198466e+20
-8.304468e+20
-1.728714e+21
-2.437806e+21
-6.189203e+19
-7.709842e+20
-1.654699e+21
-1.665299e+21
-3.262058e+21
-1.302957e+19
-8.967447e+20
-1.140176e+21
-2.023891e+21
1.210586e+21
-3.716207e+20
-3.822209e+20
-1.265936e+21
-1.975028e+21
4.008858e+20
-3.227583e+20
-1.206473e+21
-1.217074e+21
-1.926166e+21
9.154095e+20
8.902574e+20
-6.919496e+20
-7.025498e+20
-1.586265e+21
9.642720e+20
8.055686e+19
5.540476e+19
-1.526802e+21
-1.537402e+21
1.400195e+20
1.294193e+20
-3.031864e+20
-1.012279e+21
-1.895994e+21
4.217126e+20
-1.160494e+21
-1.171095e+21
-2.069362e+21
-2.778454e+21
-4.025398e+20
-4.131400e+20
-1.122232e+21
-2.020499e+21
-2.263930e+21
1.119839e+20
1.013837e+20
-1.480823e+21
-1.491423e+21
-2.389691e+21
1.608464e+20
-7.228687e+20
-7.334689e+20
-2.315676e+21
-2.340828e+21
3.508585e+19
-2.083450e+20
-1.092060e+21
-1.801152e+21
-2.684867e+21
5.496096e+20
-1.032597e+21
-1.043198e+21
-1.053798e+21
-2.636005e+21
5.984721e+20
-2.852430e+20
-9.943352e+20
-1.878050e+21
-2.121481e+21
2.544328e+20
2.292807e+20
-1.352926e+21
-1.363527e+21
-2.247242e+21
3.032953e+20
-5.949717e+20
-6.055719e+20
-2.187779e+21
-2.198379e+21
1.775348e+20
-6.589608e+19
-9.641631e+20
-1.673255e+21
-1.683855e+21
6.920585e+20
-1.703362e+19
-9.153006e+20
-9.259008e+20
-2.508108e+21
-1.904016e+20
-1.074117e+21
-1.783209e+21
-2.215815e+21
-2.226415e+21
-5.489928e+20
-5.595930e+20
-2.141800e+21
-2.166952e+21
-3.050667e+21
-5.001303e+20
-1.383845e+21
-1.394446e+21
-2.976653e+21
-3.001805e+21
-1.602296e+20
-8.693217e+20
-8.799219e+20
-1.763637e+21
-2.487281e+21
-1.113671e+20
-8.204592e+20
-1.704174e+21
-1.714775e+21
-3.296982e+21
-6.250463e+19
-9.462197e+20
-1.189651e+21
-2.073366e+21
1.175663e+21
-4.210958e+20
-4.316960e+20
-1.315411e+21
-2.024503e+21
3.514107e+20
-3.576814e+20
-1.255948e+21
-1.266549e+21
-1.975641e+21
8.659344e+20
8.553343e+20
-7.414247e+20
-7.520249e+20
-1.635740e+21
9.147969e+20
3.108180e+19
2.048161e+19
-1.576277e+21
-1.586878e+21
9.636594e+20
-7.931706e+20
-3.381096e+20
-1.061754e+21
-1.072354e+21
-5.008774e+20
-1.209969e+21
-1.220570e+21
-1.231170e+21
-3.701044e+21
-4.520149e+20
-4.626151e+20
-1.171707e+21
-1.182307e+21
-3.186520e+21
6.250885e+19
5.190866e+19
-6.571835e+20
-2.414013e+21
-2.424614e+21
1.113713e+20
1.007711e+20
-1.656059e+21
-2.365151e+21
-2.375751e+21
1.602338e+20
-1.596596e+21
-1.141535e+21
-1.850627e+21
-1.861227e+21
-3.584285e+20
-1.082072e+21
-1.092673e+21
-1.103273e+21
-1.812365e+21
-3.095660e+20
-3.347181e+20
-1.043810e+21
-1.054410e+21
-3.044071e+21
2.049578e+20
1.943576e+20
-5.292865e+20
-2.286116e+21
-2.296717e+21
2.538202e+20
2.432200e+20
-1.528162e+21
-2.237254e+21
-2.247854e+21
1.001175e+21
-9.884861e+20
-9.990862e+20
-1.722730e+21
-1.733330e+21
1.515698e+21
-9.396236e+20
-9.502238e+20
-9.753759e+20
-1.684468e+21
-1.112992e+21
-1.123592e+21
-1.832684e+21
-1.377623e+21
-3.149005e+21
-5.984678e+20
-6.090680e+20
-1.318160e+21
-3.074990e+21
-3.100142e+21
-5.496054e+20
-5.602056e+20
-2.317036e+21
-3.026128e+21
-3.036728e+21
6.634103e+20
-4.568182e+19
-1.802512e+21
-1.813112e+21
-2.522204e+21
7.122728e+20
-1.743049e+21
-1.753649e+21
-1.764250e+21
7.862873e+20
-9.705427e+20
-9.956948e+20
-1.239126e+21
-1.249726e+21
2.530732e+20
-4.560189e+20
-4.811710e+20
-4.917712e+20
-2.947093e+21
3.019356e+20
-4.071565e+20
-4.177567e+20
-2.189139e+21
-2.898231e+21
8.164594e+20
8.058592e+20
9.676708e+19
-1.674615e+21
-1.685215e+21
8.653218e+20
8.547217e+20
-9.021084e+20
-1.611200e+21
-1.636353e+21
9.141843e+20
-8.426457e+20
-3.875846e+20
-1.096677e+21
-1.121829e+21
3.809702e+20
-1.259445e+21
-1.270045e+21
-1.280645e+21
-3.735967e+21
-5.014900e+20
-1.210582e+21
-1.221182e+21
-1.231782e+21
-3.221443e+21
1.303379e+19
2.433604e+18
-7.066585e+20
-2.463489e+21
-2.474089e+21
7.644817e+19
5.129607e+19
-1.705534e+21
-2.414626e+21
-2.425226e+21
1.253106e+20
-1.646071e+21
-1.191010e+21
-1.900102e+21
-1.910703e+21
-4.079035e+20
-1.116996e+21
-1.142148e+21
-1.152748e+21
-1.861840e+21
-3.590411e+20
-3.696412e+20
-1.093285e+21
-1.103885e+21
-3.093546e+21
1.554827e+20
1.448825e+20
-5.642096e+20
-2.335592e+21
-2.346192e+21
2.043452e+20
1.937450e+20
-1.563085e+21
-2.286729e+21
-2.297329e+21
9.516995e+20
-1.037961e+21
-1.048561e+21
-1.757653e+21
-1.782806e+21
1.466223e+21
-9.890987e+20
-9.996988e+20
-1.010299e+21
-1.733943e+21
-1.162467e+21
-1.173067e+21
-1.882159e+21
-1.427098e+21
-3.183928e+21
-6.479429e+20
-6.585431e+20
-1.367635e+21
-3.124465e+21
-3.135065e+21
-5.845285e+20
-6.096806e+20
-2.366511e+21
-3.075603e+21
-3.086203e+21
6.284872e+20
-9.515688e+19
-1.851987e+21
-1.862587e+21
6.879498e+20
6.773496e+20
-1.777972e+21
-1.803124e+21
-1.813725e+21
7.368123e+20
-1.020018e+21
-1.030618e+21
-1.288601e+21
-1.299201e+21
2.035981e+20
-5.054940e+20
-5.160942e+20
-5.266944e+20
-2.996568e+21
2.524606e+20
-4.566315e+20
-4.672317e+20
-2.224062e+21
-2.947706e+21
7.669843e+20
7.563841e+20
4.729202e+19
-1.709538e+21
-1.720138e+21
8.158468e+20
8.052466e+20
-1.650075e+21
-1.660676e+21
-1.671276e+21
8.647092e+20
-8.921208e+20
-4.370597e+20
-1.146152e+21
-1.156752e+21
3.460470e+20
-1.308920e+21
-1.319520e+21
-1.330120e+21
-3.785442e+21
-5.364131e+20
-1.260057e+21
-1.270657e+21
-1.281258e+21
-3.736579e+21
-2.188935e+19
-3.248954e+19
-7.561336e+20
-2.512964e+21
-2.523564e+21
2.697311e+19
1.637292e+19
-1.755009e+21
-2.464101e+21
-2.474701e+21
7.583557e+19
-1.680994e+21
-1.225933e+21
-1.949577e+21
-1.960178e+21
-4.573786e+20
-1.166471e+21
-1.177071e+21
-1.202223e+21
-1.911315e+21
-4.085161e+20
-4.191163e+20
-1.128208e+21
-1.138809e+21
-3.143021e+21
1.060076e+20
9.540744e+19
-6.136847e+20
-2.370515e+21
-2.395667e+21
1.548701e+20
1.442699e+20
-1.612560e+21
-2.321652e+21
-2.332252e+21
9.022245e+20
-1.087436e+21
-1.098036e+21
-1.807128e+21
-1.817729e+21
1.416748e+21
-1.038574e+21
-1.049174e+21
-1.059774e+21
-1.768866e+21
-1.197390e+21
-1.222542e+21
-1.931634e+21
-1.476573e+21
-3.233403e+21
-6.828660e+20
-7.080182e+20
-1.417110e+21
-3.173940e+21
-3.184540e+21
-6.340036e+20
-6.446038e+20
-2.415986e+21
-3.125078e+21
1.239510e+20
5.790121e+20
-1.300800e+20
-1.901462e+21
-2.610554e+21
6.384747e+20
6.278746e+20
-1.827447e+21
-1.838048e+21
-1.863200e+21
6.873372e+20
-1.069493e+21
-1.080093e+21
-1.323524e+21
-1.348676e+21
1.541231e+20
-5.549691e+20
-5.655693e+20
-1.274661e+21
-3.031491e+21
2.029855e+20
-5.061066e+20
-5.167068e+20
-2.273537e+21
-2.982629e+21
7.175093e+20
7.069091e+20
-2.183044e+18
-1.759013e+21
-1.769613e+21
7.809236e+20
7.557715e+20
-1.699550e+21
-1.710151e+21
-1.720751e+21
8.297861e+20
-9.415958e+20
-4.865347e+20
-1.195627e+21
-1.206227e+21
2.965720e+20
-1.343843e+21
-1.368995e+21
-1.379595e+21
-3.834917e+21
-5.858882e+20
-1.294980e+21
-1.320132e+21
-1.330733e+21
-3.786055e+21
-7.136441e+19
-8.196460e+19
-7.910567e+20
-2.562439e+21
-2.573039e+21
-2.250195e+19
-3.310214e+19
-1.789932e+21
-2.513576e+21
-2.524176e+21
2.636051e+19
-1.730470e+21
-1.275408e+21
-1.984501e+21
-2.009653e+21
-5.068536e+20
-1.215946e+21
-1.226546e+21
-1.237146e+21
-1.960790e+21
-4.579912e+20
-4.685914e+20
-1.177683e+21
-1.188284e+21
-3.177944e+21
5.653257e+19
4.593238e+19
-6.631597e+20
-2.419990e+21
-2.430590e+21
1.053950e+20
9.479484e+19
-1.662035e+21
-2.371127e+21
-2.381727e+21
8.673013e+20
-1.136911e+21
-1.147511e+21
-1.856604e+21
-1.867204e+21
1.381825e+21
-1.088049e+21
-1.098649e+21
-1.109249e+21
-1.818341e+21
-3.155423e+20
-1.257465e+21
-1.981109e+21
-1.526048e+21
-3.981370e+21
-7.323411e+20
-7.429413e+20
-1.466585e+21
-3.223415e+21
2.561347e+19
-6.834786e+20
-6.940788e+20
-2.450909e+21
-3.174553e+21
7.447594e+19
5.295370e+20
-1.795551e+20
-1.936385e+21
-2.660029e+21
5.889997e+20
5.783995e+20
-1.876922e+21
-1.887523e+21
-1.898123e+21
6.378621e+20
-1.118968e+21
-1.129568e+21
-1.372999e+21
-1.383599e+21
1.046480e+20
-6.044441e+20
-6.150443e+20
-1.324136e+21
-3.080966e+21
1.680624e+20
-5.555817e+20
-5.661819e+20
-2.323012e+21
-3.032104e+21
6.825861e+20
6.574340e+20
-5.165810e+19
-1.808488e+21
-1.819088e+21
7.314486e+20
7.208484e+20
-1.749025e+21
-1.759626e+21
-1.770226e+21
7.803110e+20
-9.765190e+20
-1.001671e+21
-1.245102e+21
-1.255702e+21
2.470969e+20
-1.393318e+21
-1.403918e+21
-1.429070e+21
-3.884392e+21
-6.353632e+20
-1.344455e+21
-1.355056e+21
-1.380208e+21
-3.835530e+21
-1.208395e+20
-1.314397e+20
-8.405318e+20
-2.597362e+21
-2.622514e+21
-7.197701e+19
-8.257720e+19
-1.839407e+21
-2.548499e+21
-2.573651e+21
-2.311455e+19
-1.779945e+21
-1.324883e+21
-2.033976e+21
-2.044576e+21
-5.563287e+20
-1.265421e+21
-1.276021e+21
-1.286621e+21
-1.995713e+21
-5.074662e+20
-5.180664e+20
-1.227159e+21
-1.237759e+21
-3.227419e+21
2.160943e+19
-3.542679e+18
-7.126348e+20
-2.469465e+21
-2.480065e+21
7.047189e+19
4.531978e+19
-1.711510e+21
-2.420602e+21
-2.431203e+21
1.193343e+20
-1.171834e+21
-1.196986e+21
-1.906079e+21
-1.916679e+21
1.332350e+21
-1.122972e+21
-1.148124e+21
-1.158724e+21
-1.867816e+21
-3.650173e+20
-1.306940e+21
-2.016032e+21
-1.575523e+21
-4.030845e+21
-7.818162e+20
-7.924164e+20
-1.501508e+21
-3.272890e+21
-2.386159e+19
-7.329537e+20
-7.435539e+20
-2.500384e+21
-3.209476e+21
2.500087e+19
4.800620e+20
-2.290301e+20
-1.985860e+21
-2.694952e+21
5.395246e+20
5.289244e+20
-1.926398e+21
-1.936998e+21
-1.947598e+21
6.029390e+20
-1.168443e+21
-1.179043e+21
-1.422474e+21
-1.433074e+21
6.972485e+19
-6.539192e+20
-6.645194e+20
-1.373611e+21
-3.130442e+21
1.185873e+20
-5.905048e+20
-6.156569e+20
-2.372487e+21
-3.081579e+21
6.331111e+20
6.225109e+20
-1.011332e+20
-1.857963e+21
-1.868563e+21
6.819735e+20
6.713733e+20
-1.783949e+21
-1.809101e+21
-1.819701e+21
7.308360e+20
-1.025994e+21
-1.036594e+21
-1.294577e+21
-1.305177e+21
1.976218e+20
-5.114703e+20
-1.453393e+21
-1.463993e+21
-3.933867e+21
-6.848383e+20
-1.393930e+21
-1.404531e+21
-1.415131e+21
-3.885005e+21
-1.703145e+20
-1.809147e+20
-8.900068e+20
-2.646837e+21
-2.657437e+21
-1.214521e+20
-1.320523e+20
-1.888882e+21
-2.597974e+21
-2.608575e+21
-7.258961e+19
-1.829420e+21
-1.374359e+21
-2.083451e+21
-2.094051e+21
-5.912518e+20
-1.314896e+21
-1.325496e+21
-1.336096e+21
-2.045188e+21
-5.423894e+20
-1.266033e+21
-1.276634e+21
-1.287234e+21
-3.276894e+21
-2.786563e+19
-3.846582e+19
-7.621099e+20
-2.518940e+21
-2.529540e+21
2.099683e+19
1.039664e+19
-1.760985e+21
-2.470077e+21
-2.480678e+21
6.985929e+19
-1.686971e+21
-1.231910e+21
-2.421215e+21
-1.966154e+21
8.172137e+20
-1.172447e+21
-7.173859e+20
-1.208199e+21
-1.451630e+21
-4.144924e+20
-8.907539e+20
-2.065507e+21
-1.610446e+21
-1.286352e+21
-8.312912e+20
-1.307553e+21
-1.550984e+21
-3.773475e+21
-7.333665e+19
-3.167675e+20
-7.930290e+20
-2.084198e+21
-3.258951e+21
4.557390e+20
-3.507437e+19
-2.785052e+20
-2.500997e+21
-2.744427e+21
3.894019e+19
4.794494e+20
-1.510211e+21
-1.986473e+21
-1.531412e+21
5.534639e+20
-7.377048e+20
-1.228518e+21
-1.471949e+21
-1.948210e+21
2.024979e+19
-1.154504e+21
-7.139944e+20
-1.888748e+21
-3.179917e+21
5.347735e+20
-6.399799e+20
-1.849188e+20
-6.757322e+20
-2.665393e+21
1.179747e+20
5.730358e+20
-6.017176e+20
-1.907438e+21
-2.383700e+21
6.324985e+20
1.562370e+20
-1.833424e+21
-1.378363e+21
-1.869176e+21
1.147022e+21
-1.075469e+21
-6.204080e+20
-1.795161e+21
-1.354652e+21
-3.175145e+20
-5.609453e+20
-1.968529e+21
-1.513468e+21
-3.503129e+21
-7.343133e+20
-9.777442e+20
-1.454006e+21
-9.989446e+20
-3.919928e+21
-2.197896e+20
-6.960511e+20
-9.394819e+20
-3.161973e+21
-2.706912e+21
-6.220365e+20
-1.815273e+20
-2.171188e+21
-2.647449e+21
-2.192388e+21
-1.075128e+20
-1.413233e+21
-1.889495e+21
-2.132926e+21
-2.609187e+21
-6.407269e+20
-1.815480e+21
-1.374971e+21
-9.199100e+20
-2.094663e+21
-1.262032e+20
-1.300957e+21
-8.604474e+20
-1.336709e+21
-3.326370e+21
-5.430020e+20
-8.794088e+19
-1.262694e+21
-2.568415e+21
-3.044676e+21
-2.847823e+19
4.265829e+20
-1.795908e+21
-2.039339e+21
-2.530153e+21
4.860455e+20
-1.736446e+21
-1.281385e+21
-2.456138e+21
-2.015629e+21
7.677386e+20
-1.221922e+21
-7.668609e+20
-1.243122e+21
1.773076e+21
-4.639675e+20
-9.402289e+20
-2.114982e+21
-1.659921e+21
-1.321275e+21
-8.807663e+20
-1.357028e+21
-1.600459e+21
-3.822950e+21
-1.082598e+20
-3.516906e+20
-8.425040e+20
-2.133673e+21
-3.308426e+21
4.062640e+20
-6.999752e+19
-3.279803e+20
-2.550472e+21
-2.793902e+21
-1.053487e+19
4.445262e+20
-1.545134e+21
-2.035948e+21
-1.580887e+21
5.039889e+20
-7.871799e+20
-1.263441e+21
-1.521424e+21
-1.997686e+21
-2.922527e+19
-1.203979e+21
-7.489176e+20
-1.923671e+21
-3.229392e+21
4.852985e+20
-6.894549e+20
-2.343938e+20
-7.106553e+20
-2.714868e+21
6.849965e+19
5.235608e+20
-6.511927e+20
-1.942361e+21
-2.418623e+21
5.830234e+20
1.067619e+20
-1.882899e+21
-1.427838e+21
-1.904099e+21
1.097547e+21
-1.124944e+21
-6.698831e+20
-1.844636e+21
-1.389575e+21
-3.524377e+20
-6.104204e+20
-2.018004e+21
-2.261435e+21
-3.552604e+21
-7.692365e+20
-1.027219e+21
-1.503481e+21
-1.048420e+21
-3.969403e+21
-2.547127e+20
-7.309742e+20
-9.889570e+20
-3.211448e+21
-2.756387e+21
-6.715116e+20
-2.164505e+20
-2.220663e+21
-2.696925e+21
-2.241863e+21
-1.569878e+20
-1.448157e+21
-1.924418e+21
-2.182401e+21
-2.658662e+21
-6.902020e+20
-1.864955e+21
-1.409894e+21
-9.693851e+20
-2.144138e+21
-1.756782e+20
-1.350432e+21
-8.953705e+20
-1.371632e+21
-3.375845e+21
-5.924770e+20
-1.374159e+20
-1.312169e+21
-2.603338e+21
-3.094151e+21
-7.795329e+19
3.771078e+20
-1.845384e+21
-2.088814e+21
-2.565076e+21
4.365705e+20
-1.785921e+21
-1.330860e+21
-2.505613e+21
1.209077e+21
7.182636e+20
-1.271397e+21
-8.163360e+20
-1.292597e+21
1.723601e+21
-4.988906e+20
-5.838142e+19
-2.164457e+21
-1.709396e+21
-1.370751e+21
-9.156894e+20
-1.406503e+21
-1.649934e+21
-3.872425e+21
-1.577349e+20
-4.011657e+20
-8.774272e+20
-2.183148e+21
-3.357901e+21
3.567889e+20
-1.194726e+20
-3.629034e+20
-2.599947e+21
-2.843377e+21
-6.000993e+19
3.950512e+20
-1.594609e+21
-2.070871e+21
-1.630362e+21
4.545138e+20
-8.366549e+20
-1.312916e+21
-1.556347e+21
-2.047161e+21
-7.870033e+19
-1.253454e+21
-7.983926e+20
-1.973146e+21
-3.264315e+21
4.358234e+20
-7.389300e+20
-2.838689e+20
-7.601304e+20
-2.749791e+21
1.902459e+19
4.740857e+20
-7.006677e+20
-1.991836e+21
-3.166590e+21
5.481003e+20
5.728686e+19
-1.932374e+21
-1.477313e+21
-1.953574e+21
1.062624e+21
-1.174419e+21
-7.193581e+20
-1.894112e+21
-1.439050e+21
-4.019127e+20
-6.453436e+20
-2.067480e+21
-2.310910e+21
-3.602079e+21
-8.187115e+20
-1.062142e+21
-1.552956e+21
-1.097895e+21
-4.018878e+21
-3.041878e+20
-7.804493e+20
-1.023880e+21
-3.260923e+21
-2.805862e+21
-7.209866e+20
-2.659255e+20
-2.255586e+21
-2.746400e+21
-2.291338e+21
-2.064629e+20
-1.497632e+21
-1.973893e+21
-2.217324e+21
-2.708137e+21
-7.396770e+20
-1.914430e+21
-1.459369e+21
-1.004308e+21
-2.193614e+21
-2.251533e+20
-1.399907e+21
-9.448456e+20
-1.421107e+21
-3.410768e+21
-6.419521e+20
-1.868910e+20
-1.361644e+21
-2.652813e+21
-3.129075e+21
-1.274284e+20
3.276327e+20
-1.894859e+21
-2.138289e+21
6.450781e+20
4.016473e+20
-1.835396e+21
-1.380335e+21
-2.555088e+21
1.159602e+21
6.833404e+20
-1.320872e+21
-8.658111e+20
-1.342073e+21
1.674126e+21
-5.483657e+20
-9.330457e+19
-2.213932e+21
-1.758871e+21
-1.420226e+21
-9.651645e+20
-1.441426e+21
-1.699409e+21
-3.921900e+21
-2.072099e+20
-4.506407e+20
-9.269022e+20
-2.218071e+21
-3.407376e+21
3.073138e+20
-1.689476e+20
-4.123785e+20
-2.634870e+21
-2.892853e+21
-1.094850e+20
3.455761e+20
-2.575407e+21
-2.120346e+21
-1.665285e+21
4.050388e+20
-8.861300e+20
-1.362391e+21
-1.605822e+21
-2.082084e+21
-8.266673e+20
-1.302929e+21
-8.478677e+20
-2.022621e+21
-3.313790e+21
4.009003e+20
-7.884050e+20
-3.333440e+20
-8.096054e+20
-2.799266e+21
-1.589855e+19
4.246106e+20
-7.501428e+20
-2.041312e+21
-3.216065e+21
4.986252e+20
2.236372e+19
-1.981849e+21
-1.526788e+21
-2.003049e+21
1.013149e+21
-1.209342e+21
-7.688332e+20
-1.943587e+21
-1.488525e+21
-4.513878e+20
-6.948186e+20
-2.102403e+21
-2.360385e+21
-3.651554e+21
-8.681866e+20
-1.111617e+21
-1.587879e+21
-1.147370e+21
-4.068353e+21
-3.536629e+20
-8.299243e+20
-1.073355e+21
-3.295846e+21
-2.855337e+21
-7.704617e+20
-3.154006e+20
-2.305061e+21
-2.781323e+21
-2.340814e+21
-2.559379e+20
-1.547107e+21
-2.023368e+21
-2.266799e+21
-2.743060e+21
-7.891521e+20
-1.963905e+21
-1.508844e+21
-1.053783e+21
-2.228537e+21
-2.746283e+20
-1.449382e+21
-9.943206e+20
-1.470582e+21
-3.460243e+21
-6.768752e+20
-2.363661e+20
-1.411119e+21
-2.702288e+21
-3.178550e+21
-1.623515e+20
2.781577e+20
-1.944334e+21
-2.187764e+21
5.956031e+20
3.521722e+20
-1.870319e+21
-1.429810e+21
-2.604563e+21
1.110127e+21
6.338654e+20
-1.355795e+21
-9.152861e+20
-1.391548e+21
1.624651e+21
-5.978407e+20
-8.412716e+20
-2.263408e+21
-1.793795e+21
-1.469701e+21
-1.000088e+21
-1.490901e+21
-1.748884e+21
-3.956823e+21
-2.566850e+20
-4.855639e+20
-9.763773e+20
-2.282098e+21
-3.442299e+21
2.578388e+20
-9.023627e+20
-4.618535e+20
-2.698897e+21
-2.927776e+21
-1.589601e+20
3.106530e+20
-2.624882e+21
-2.184373e+21
-1.714760e+21
3.555637e+20
-9.210531e+20
-1.411867e+21
-1.640745e+21
-2.131559e+21
-8.761424e+20
-1.337852e+21
-8.973428e+20
-2.057544e+21
-3.363265e+21
3.368733e+20
-8.233282e+20
-3.828190e+20
-8.445286e+20
-2.848741e+21
-7.992553e+19
3.896875e+20
-7.996178e+20
-2.076235e+21
-3.265540e+21
4.345982e+20
-2.711134e+19
-2.031324e+21
-1.561711e+21
-2.052524e+21
9.782258e+20
-1.258817e+21
-8.183082e+20
-1.978510e+21
-1.538001e+21
-4.863109e+20
-7.442937e+20
-1.235107e+21
-2.395309e+21
-3.701029e+21
-9.031098e+20
-1.161092e+21
-1.651906e+21
-1.182293e+21
-4.117828e+21
-3.885860e+20
-8.793994e+20
-1.137382e+21
-3.345322e+21
-2.904812e+21
-8.053848e+20
-3.648756e+20
-2.339984e+21
-2.830798e+21
-2.390289e+21
-2.908611e+20
-1.596582e+21
-2.058291e+21
-2.316274e+21
-2.807087e+21
-8.240752e+20
-2.013381e+21
-1.543768e+21
-1.103258e+21
-2.292564e+21
-3.095515e+20
-1.498857e+21
-1.029244e+21
-1.520057e+21
-3.524270e+21
-7.263503e+20
-2.858411e+20
-1.446043e+21
-2.751763e+21
4.615619e+19
-2.118266e+20
2.286826e+20
-2.677749e+21
-2.237240e+21
5.606799e+20
3.026972e+20
-1.934346e+21
-1.464733e+21
-2.654038e+21
1.075204e+21
5.843903e+20
-1.419822e+21
-9.502093e+20
-1.441023e+21
1.589727e+21
-6.473158e+20
-9.052985e+20
-2.298331e+21
-1.857821e+21
-1.504624e+21
-1.064115e+21
-1.525824e+21
-1.783807e+21
-4.020850e+21
-2.916081e+20
-5.495909e+20
-1.011300e+21
-2.317021e+21
-3.506326e+21
2.229156e+20
-9.663897e+20
-4.967767e+20
-2.733820e+21
-2.991803e+21
-1.938832e+20
2.466260e+20
-2.659805e+21
-2.219296e+21
-1.778787e+21
3.206406e+20
-9.850801e+20
-1.446790e+21
-1.704772e+21
-2.166482e+21
-9.110655e+20
-1.401879e+21
-9.322659e+20
-2.121571e+21
-3.398188e+21
3.019502e+20
-8.873552e+20
-4.177422e+20
-9.085555e+20
-2.883664e+21
-1.148487e+20
3.256605e+20
-8.345410e+20
-2.140262e+21
-3.300463e+21
3.996751e+20
-9.113832e+19
-2.066247e+21
-1.625738e+21
-2.087447e+21
9.141988e+20
-1.293741e+21
-8.532314e+20
-2.042537e+21
-1.572924e+21
-5.503379e+20
-7.792168e+20
-1.270030e+21
-2.459336e+21
-3.735952e+21
-9.671367e+20
-1.196016e+21
-1.686829e+21
-1.246320e+21
-4.152751e+21
-4.526130e+20
-9.143225e+20
-1.172305e+21
-3.409349e+21
-2.939735e+21
-8.694118e+20
-3.997988e+20
-2.404011e+21
-2.865721e+21
-2.425212e+21
-3.548881e+20
-1.631505e+21
-2.122318e+21
-2.351197e+21
-2.842011e+21
-8.881022e+20
-2.048304e+21
-1.607795e+21
-1.836673e+21
-2.327487e+21
-3.735785e+20
-1.533780e+21
-1.093271e+21
-1.554980e+21
-2.995639e+20
-7.903773e+20
-3.207643e+20
-1.510070e+21
-2.786686e+21
-1.787079e+19
-2.467497e+20
1.937595e+20
-2.741776e+21
-2.272163e+21
4.966530e+20
2.677740e+20
-1.969269e+21
-1.528760e+21
-2.688961e+21
1.011177e+21
5.494671e+20
-1.454745e+21
-1.945559e+21
-1.475946e+21
1.525700e+21
-6.822389e+20
-9.402217e+20
-1.431035e+21
-1.892745e+21
-1.568651e+21
-1.099038e+21
-1.589851e+21
-1.818730e+21
-4.055773e+21
-3.556351e+20
-5.845140e+20
-1.075327e+21
-2.351944e+21
-3.541250e+21
1.588887e+20
-1.001313e+21
-5.608037e+20
-2.768743e+21
-3.026726e+21
-2.579102e+20
2.117028e+20
-2.723832e+21
-2.254219e+21
-1.813710e+21
2.566136e+20
-1.020003e+21
-1.510817e+21
-1.739696e+21
-2.230509e+21
-9.459887e+20
-1.436802e+21
-9.962929e+20
-2.156494e+21
-3.462215e+21
2.670270e+20
-9.222783e+20
-4.817691e+20
-9.434787e+20
-2.947691e+21
-1.497718e+20
2.907374e+20
-8.985680e+20
-2.175185e+21
-3.364490e+21
3.647519e+20
-1.260615e+20
-2.130274e+21
-1.660661e+21
-2.151474e+21
8.792757e+20
-1.357768e+21
-8.881545e+20
-2.077460e+21
-1.636951e+21
-5.852610e+20
-8.432438e+20
-1.304953e+21
-2.494259e+21
-3.799979e+21
-1.002060e+21
-1.260043e+21
-1.721752e+21
-1.281243e+21
-4.216778e+21
-4.875361e+20
-9.783495e+20
-1.207228e+21
-3.444272e+21
-3.702254e+21
-9.043349e+20
-4.638258e+20
-2.438935e+21
-2.929748e+21
-2.460135e+21
-3.898112e+20
-1.695532e+21
-2.157241e+21
-2.415224e+21
-2.876934e+21
-9.230254e+20
-2.112331e+21
-1.642718e+21
-1.900700e+21
8.972190e+20
-4.085016e+20
-1.597807e+21
-1.128194e+21
-1.619007e+21
-3.344870e+20
-8.253004e+20
-3.847912e+20
-1.544993e+21
-2.850713e+21
-5.279393e+19
-3.107767e+20
1.588363e+20
-2.776699e+21
-2.336190e+21
4.617298e+20
2.037471e+20
-2.004192e+21
-1.563683e+21
-2.752988e+21
9.762536e+20
4.854402e+20
-1.489669e+21
-1.980482e+21
-1.539973e+21
1.490777e+21
-7.462659e+20
-9.751448e+20
-1.465958e+21
-1.956772e+21
-1.603574e+21
-1.163065e+21
-1.624774e+21
-1.882757e+21
-4.090696e+21
-3.905582e+20
-6.485410e+20
-1.110251e+21
-2.415971e+21
-3.576173e+21
1.239655e+20
-1.065340e+21
-5.957268e+20
-2.832770e+21
-3.061649e+21
-2.928333e+20
1.476759e+20
-2.758755e+21
-2.318246e+21
-2.547125e+21
9.201824e+20
-1.084030e+21
-2.244232e+21
-1.105231e+21
-2.265432e+21
-1.010016e+21
-7.732333e+20
-1.031216e+21
-2.220521e+21
-2.798646e+21
2.030000e+20
-9.572015e+20
-1.215184e+21
-1.007506e+21
-2.982614e+21
-9.122907e+20
2.558142e+20
-9.334911e+20
-2.937704e+21
-2.700921e+21
3.007250e+20
-8.594765e+20
-1.466705e+21
-1.724688e+21
-2.884889e+21
1.513741e+21
-1.392691e+21
-1.650673e+21
-1.413891e+21
-1.671874e+21
-1.347780e+21
-1.796750e+20
-1.368980e+21
-2.529182e+21
-3.136411e+21
-1.066087e+21
-1.294966e+21
-2.484271e+21
-1.316166e+21
-4.251701e+21
-1.250055e+21
-1.013273e+21
-1.271255e+21
-4.177687e+21
-3.038686e+21
-9.683619e+20
-1.197241e+21
-1.804470e+21
-2.964671e+21
-3.222654e+21
2.737576e+20
-1.730455e+21
-2.919760e+21
-1.751655e+21
3.186683e+20
-1.656440e+21
-1.448762e+21
-1.706745e+21
-1.935624e+21
1.531684e+21
-4.434247e+20
-1.632730e+21
-4.937290e+20
-1.653930e+21
-3.985140e+20
-1.558716e+21
-4.197144e+20
-1.609020e+21
-3.584128e+21
-1.168209e+20
-3.456998e+20
-6.036826e+20
-2.113130e+21
-2.371113e+21
-3.007891e+20
8.673159e+20
-2.068219e+21
-2.297098e+21
-2.089420e+21
9.122266e+20
-2.479749e+20
-8.552036e+20
-2.015405e+21
-2.273388e+21
2.125242e+21
-7.811891e+20
-1.039172e+21
-8.023894e+20
-1.991695e+21
-1.638497e+21
-4.994959e+20
-1.688801e+21
-1.917680e+21
-4.853215e+21
-4.254814e+20
-6.834641e+20
-1.872769e+21
-2.450894e+21
-3.640200e+21
-6.094496e+20
-4.017710e+20
-6.597538e+20
-3.566185e+21
-2.427184e+21
-3.277565e+20
-5.857392e+20
-2.124290e+21
-2.353169e+21
-2.611152e+21
8.852592e+20
-1.118953e+21
-2.279155e+21
-1.140154e+21
-2.329459e+21
-1.044939e+21
-8.372603e+20
-1.066139e+21
-2.255444e+21
-4.259657e+21
1.680769e+20
-1.021228e+21
-1.250107e+21
-1.042429e+21
-3.046641e+21
-9.472139e+20
1.917872e+20
-9.684142e+20
-2.972627e+21
-2.764948e+21
2.658018e+20
-9.235035e+20
-1.501628e+21
-1.759611e+21
-2.919813e+21
1.478817e+21
-1.456718e+21
-1.685597e+21
-1.477918e+21
-1.706797e+21
-1.382703e+21
-2.437020e+20
-1.403903e+21
-1.661886e+21
-3.171334e+21
-1.101010e+21
-1.358993e+21
-2.519194e+21
-1.380193e+21
-4.286624e+21
-1.284978e+21
-1.077300e+21
-1.306179e+21
-4.241714e+21
-3.073609e+21
-1.003285e+21
-1.232164e+21
-1.839393e+21
-3.028698e+21
-3.257577e+21
2.097306e+20
-1.765378e+21
-2.954683e+21
-1.815682e+21
2.837452e+20
-1.720467e+21
-1.483685e+21
-1.741668e+21
-1.999651e+21
1.496761e+21
-5.074517e+20
-1.667653e+21
-5.286521e+20
-1.717957e+21
-4.334372e+20
-1.622742e+21
-4.546375e+20
-1.643943e+21
-3.619052e+21
-1.517441e+20
-4.097268e+20
-6.386057e+20
-2.177157e+21
-2.406036e+21
-3.357122e+20
8.032889e+20
-2.103142e+21
-2.361125e+21
-2.124343e+21
8.773034e+20
-3.120019e+20
-8.901268e+20
-2.079432e+21
-2.308311e+21
2.090319e+21
-8.452160e+20
-1.074095e+21
-8.664164e+20
-2.026618e+21
-1.702524e+21
-5.344191e+20
-1.723724e+21
-1.981707e+21
-4.888138e+21
-4.895084e+20
-7.183873e+20
-1.907693e+21
-2.514921e+21
-3.675123e+21
-6.734765e+20
-4.366942e+20
-6.946769e+20
-3.630212e+21
-2.462107e+21
-3.917834e+20
-6.206624e+20
-2.159214e+21
-2.417196e+21
-2.646075e+21
8.212322e+20
-1.153877e+21
-2.343182e+21
-1.175077e+21
-2.364382e+21
-1.108966e+21
-8.721834e+20
-1.130166e+21
-2.290368e+21
-4.294580e+21
1.040499e+20
-1.056152e+21
-1.314134e+21
-1.077352e+21
-3.081565e+21
-1.011241e+21
1.568641e+20
-1.032441e+21
-3.007550e+21
-2.799871e+21
2.017748e+20
-9.584267e+20
-1.565655e+21
-1.794534e+21
-2.983840e+21
1.443894e+21
-1.491641e+21
-1.749624e+21
-1.512841e+21
-1.770824e+21
-1.417626e+21
-2.786251e+20
-1.467930e+21
-1.696809e+21
-3.235361e+21
-1.135933e+21
-1.393916e+21
-2.583221e+21
-1.415116e+21
-4.350651e+21
-1.319901e+21
-1.112223e+21
-1.370206e+21
-4.276637e+21
-3.137636e+21
-1.038208e+21
-1.296191e+21
-1.874316e+21
-3.063621e+21
-6.197491e+19
1.748075e+20
-1.829405e+21
-2.989607e+21
-1.850605e+21
2.197182e+20
-1.755391e+21
-1.547712e+21
-1.776591e+21
-2.965896e+21
1.432734e+21
-5.423749e+20
-1.731680e+21
-5.635752e+20
-1.752881e+21
-4.974641e+20
-1.657666e+21
-5.186645e+20
-1.678866e+21
-3.683079e+21
-1.866672e+20
-4.446499e+20
-7.026327e+20
-2.212080e+21
-2.470063e+21
-3.706354e+20
7.683657e+20
-2.167169e+21
-2.396048e+21
-2.188370e+21
8.423803e+20
-3.469250e+20
-9.541537e+20
-2.114355e+21
-2.372338e+21
2.055396e+21
-8.801392e+20
-1.138122e+21
-9.013396e+20
-2.090645e+21
-1.737447e+21
-1.995430e+21
-1.758648e+21
-2.016630e+21
-4.952165e+21
-5.244315e+20
-7.824143e+20
-1.942616e+21
-2.549844e+21
-3.739150e+21
-7.083997e+20
-5.007211e+20
-7.296001e+20
-3.665135e+21
-2.526134e+21
-4.267066e+20
-6.846893e+20
-2.194137e+21
-2.452120e+21
-2.710102e+21
7.863091e+20
-1.217903e+21
-2.378105e+21
-1.239104e+21
-2.399305e+21
-1.143889e+21
-9.362104e+20
-1.165089e+21
-2.354395e+21
-4.329503e+21
6.912677e+19
-1.120179e+21
-1.349057e+21
-1.141379e+21
-3.116488e+21
-1.046164e+21
9.283712e+19
-1.067364e+21
-3.071577e+21
-2.834795e+21
1.668517e+20
-1.022454e+21
-1.600579e+21
-1.858561e+21
-3.018763e+21
1.379867e+21
-1.526564e+21
-1.784547e+21
-1.576868e+21
-1.805747e+21
-1.481653e+21
-3.135483e+20
-1.502854e+21
-1.760836e+21
-3.270284e+21
-1.199960e+21
-1.428839e+21
-2.618144e+21
-1.479143e+21
-4.385575e+21
-1.383928e+21
-1.147146e+21
-1.405129e+21
-4.340664e+21
8.707013e+19
-1.102235e+21
-1.331114e+21
-1.938343e+21
-3.098544e+21
-9.689805e+19
1.107805e+20
-1.864328e+21
-3.053634e+21
-1.885529e+21
1.847951e+20
-1.819418e+21
-1.582635e+21
-1.840618e+21
-3.000819e+21
1.397811e+21
-6.064018e+20
-1.766603e+21
-6.276022e+20
-1.787804e+21
-5.323873e+20
-1.721693e+21
-5.535877e+20
-1.742893e+21
-3.718002e+21
-2.506942e+20
-4.795731e+20
-7.375558e+20
-2.276107e+21
-2.504986e+21
-4.346624e+20
7.334426e+20
-2.202093e+21
-2.460075e+21
-2.223293e+21
7.783533e+20
-3.818482e+20
-9.890769e+20
-2.178382e+21
-2.407261e+21
1.991369e+21
-9.150623e+20
-1.173045e+21
-9.653665e+20
-1.194245e+21
-1.801474e+21
-2.030353e+21
-1.822675e+21
-2.051553e+21
-4.987089e+21
-5.884585e+20
-8.173374e+20
-2.006643e+21
-2.584768e+21
-3.774073e+21
-7.724267e+20
-5.356443e+20
-7.936270e+20
-3.700058e+21
-2.561057e+21
-4.907336e+20
-7.196125e+20
-2.258164e+21
-2.487043e+21
-2.745025e+21
7.222821e+20
-1.252827e+21
-2.442132e+21
-1.274027e+21
-2.463332e+21
-1.178812e+21
-9.711335e+20
-1.229116e+21
-2.389318e+21
-4.393530e+21
3.420362e+19
-1.155102e+21
-1.413084e+21
-1.176302e+21
-3.180515e+21
-1.081087e+21
5.791398e+19
-1.131391e+21
-3.106500e+21
-2.898822e+21
1.319285e+20
-1.057377e+21
-1.664605e+21
-1.893484e+21
-3.082790e+21
1.344944e+21
-1.590591e+21
-1.819470e+21
-1.611791e+21
-1.869774e+21
-1.516576e+21
-3.775752e+20
-1.537777e+21
-1.795759e+21
-3.334311e+21
-1.234883e+21
-1.492866e+21
-2.653067e+21
-1.514066e+21
-1.189973e+21
-1.418851e+21
-1.211173e+21
-1.440052e+21
-4.375587e+21
2.304316e+19
-1.137158e+21
-1.395141e+21
-1.973266e+21
-3.162571e+21
-1.318212e+20
7.585734e+19
-1.928355e+21
-3.088557e+21
-1.949556e+21
1.498719e+20
-1.854341e+21
-1.646662e+21
-1.875541e+21
-3.064846e+21
1.362888e+21
-6.413250e+20
-1.830630e+21
-2.059509e+21
-1.851831e+21
-5.673104e+20
-1.756616e+21
-6.176146e+20
-1.777816e+21
-3.782029e+21
-2.856173e+20
-5.436001e+20
-7.724790e+20
-2.311030e+21
-2.569013e+21
-4.695855e+20
6.694156e+20
-2.237016e+21
-2.494998e+21
-2.287320e+21
7.434302e+20
-4.458751e+20
-1.024000e+21
-2.213305e+21
-2.471288e+21
1.956446e+21
-9.790893e+20
-1.207968e+21
-1.000290e+21
-1.258272e+21
-1.836397e+21
-2.094380e+21
-1.857598e+21
-2.115580e+21
-5.022012e+21
-6.233816e+20
-8.813644e+20
-2.041566e+21
-2.648795e+21
-3.808996e+21
-8.073498e+20
-5.996713e+20
-8.285502e+20
-3.764085e+21
-2.595980e+21
-5.256567e+20
-7.836394e+20
-2.293087e+21
-2.551070e+21
-2.779949e+21
6.873590e+20
-1.316854e+21
-2.477055e+21
-1.338054e+21
-2.498255e+21
-1.242839e+21
-1.006057e+21
-1.264039e+21
-2.453345e+21
-4.428453e+21
-2.982335e+19
-1.190025e+21
-1.448008e+21
-1.240329e+21
-3.215438e+21
-1.145114e+21
2.299083e+19
-1.166314e+21
-3.170527e+21
-2.933745e+21
6.790157e+19
-1.092300e+21
-1.699529e+21
-1.957511e+21
-3.117713e+21
1.280917e+21
-1.625514e+21
-1.883497e+21
-1.646714e+21
-1.904697e+21
-1.580603e+21
-4.124984e+20
-1.601804e+21
-1.830683e+21
-3.834895e+21
-1.298910e+21
-1.527789e+21
-2.717094e+21
-1.548990e+21
-1.224896e+21
-1.482878e+21
-1.246096e+21
-1.504079e+21
-4.410510e+21
-1.187999e+19
-1.172081e+21
-1.430064e+21
-2.037293e+21
-3.197494e+21
-1.958482e+20
4.093420e+19
-1.963278e+21
-3.152584e+21
-1.984479e+21
8.584493e+19
-1.889264e+21
-1.681585e+21
-1.939568e+21
-3.099770e+21
1.298861e+21
-6.762481e+20
-1.865553e+21
-2.123536e+21
-1.886754e+21
-6.313374e+20
-1.791539e+21
-6.525378e+20
-1.812739e+21
-3.816952e+21
-3.496443e+20
-5.785232e+20
-8.365060e+20
-2.345953e+21
-2.603936e+21
-5.336125e+20
6.344925e+20
-2.301043e+21
-2.529922e+21
-2.322243e+21
6.794032e+20
-4.807983e+20
-1.088027e+21
-2.248228e+21
-2.506211e+21
1.892419e+21
-1.014012e+21
-1.271995e+21
-1.035213e+21
-1.293196e+21
-1.871320e+21
-2.129303e+21
-1.921625e+21
-2.150504e+21
-5.086039e+21
-6.583048e+20
-9.162875e+20
-2.105593e+21
-2.683718e+21
-3.873023e+21
-8.422730e+20
-6.345944e+20
-8.925772e+20
-3.799008e+21
-2.660007e+21
-5.605798e+20
-8.185626e+20
-2.357114e+21
-2.585993e+21
-2.843976e+21
6.524358e+20
-1.351777e+21
-2.511978e+21
-1.372977e+21
-2.562282e+21
-1.277762e+21
-1.070084e+21
-1.298963e+21
-2.488268e+21
-4.492480e+21
-6.474650e+19
-1.254052e+21
-1.482931e+21
-1.275252e+21
-3.279465e+21
-1.180037e+21
-4.103614e+19
-1.201238e+21
-3.205450e+21
-2.997772e+21
3.297842e+19
-1.156327e+21
-1.734452e+21
-1.992435e+21
-3.152636e+21
1.245994e+21
-1.689541e+21
-1.918420e+21
-1.710741e+21
-1.939620e+21
-1.615526e+21
-4.765254e+20
-1.636727e+21
-1.894710e+21
2.047179e+20
-1.333833e+21
-1.591816e+21
-2.752018e+21
-1.613017e+21
-1.259819e+21
-1.517802e+21
-1.310123e+21
-1.539002e+21
-4.474537e+21
-4.680313e+19
-1.236108e+21
-1.464987e+21
-2.072216e+21
-3.261521e+21
-2.307713e+20
-2.309278e+19
-1.998202e+21
-3.187507e+21
-2.048506e+21
5.092179e+19
-1.953291e+21
-1.716508e+21
-1.974491e+21
-3.163796e+21
1.263937e+21
-7.402751e+20
-1.900477e+21
-2.158459e+21
-1.950781e+21
-6.662605e+20
-1.855566e+21
-6.874609e+20
-1.876766e+21
-3.851875e+21
-3.845674e+20
-6.425502e+20
-8.714291e+20
-2.409980e+21
-2.638859e+21
-5.685356e+20
5.704655e+20
-2.335966e+21
-2.593949e+21
-2.357166e+21
6.444801e+20
-5.448253e+20
-1.122950e+21
-2.312255e+21
-2.541134e+21
1.857496e+21
-1.078039e+21
-1.306918e+21
-1.099240e+21
-1.328119e+21
-1.935347e+21
-2.164226e+21
-1.956548e+21
-2.214531e+21
-5.120962e+21
-7.223317e+20
-9.512107e+20
-2.140516e+21
-2.747745e+21
-3.907946e+21
-9.062999e+20
-6.695176e+20
-9.275003e+20
-3.863035e+21
-2.694931e+21
-6.246068e+20
-8.534857e+20
-2.392037e+21
-2.650020e+21
-2.878899e+21
5.884089e+20
-1.386700e+21
-2.576005e+21
-1.407900e+21
-2.597206e+21
-1.341789e+21
-2.501991e+21
-1.362990e+21
-2.523191e+21
-4.527404e+21
-1.287735e+20
-1.288975e+21
-1.546958e+21
-1.310175e+21
-3.314388e+21
-1.244064e+21
-7.595929e+19
-1.265265e+21
-3.240373e+21
-3.032695e+21
-3.104855e+19
-1.191250e+21
-1.798479e+21
-2.027358e+21
-3.216663e+21
1.211071e+21
-1.724464e+21
-1.982447e+21
-1.745665e+21
1.255982e+21
-1.650450e+21
-5.114485e+20
-1.700754e+21
-1.929633e+21
1.406909e+20
-1.368757e+21
-1.626739e+21
-2.816045e+21
-1.647940e+21
-1.323846e+21
-1.552725e+21
-1.345046e+21
-1.603029e+21
-4.509460e+21
-1.108301e+20
-1.271032e+21
-1.529014e+21
-2.107139e+21
-3.296445e+21
-2.947983e+20
-5.801592e+19
-2.062228e+21
-3.222430e+21
-2.083429e+21
-1.310519e+19
-1.988214e+21
-1.780535e+21
-2.009414e+21
-3.198720e+21
1.199910e+21
-7.751983e+20
-1.964504e+21
-2.193382e+21
-1.985704e+21
-7.302875e+20
-1.890489e+21
-7.514879e+20
-1.911689e+21
-3.915902e+21
-4.194906e+20
-6.774733e+20
-9.354561e+20
-2.444904e+21
-2.702886e+21
-6.034588e+20
5.355423e+20
-2.399993e+21
-2.628872e+21
-2.421193e+21
6.095569e+20
-5.797484e+20
-1.186977e+21
-2.347179e+21
-2.605161e+21
1.822573e+21
-1.112963e+21
-1.370945e+21
-1.134163e+21
-1.392146e+21
-1.038948e+21
-2.228253e+21
-1.991471e+21
-2.249454e+21
-5.184989e+21
-7.572549e+20
-1.015238e+21
-2.175439e+21
-2.782668e+21
-3.971973e+21
-9.412231e+20
-7.335445e+20
-9.624234e+20
-3.897959e+21
-2.758957e+21
-6.595300e+20
-9.175127e+20
-2.426960e+21
-2.684943e+21
-2.942926e+21
5.534857e+20
-1.450727e+21
-2.610928e+21
-1.471927e+21
-2.632129e+21
-1.376712e+21
-2.566018e+21
-1.397913e+21
-2.587218e+21
-4.562327e+21
-1.636966e+20
-1.353002e+21
-1.581881e+21
-1.374202e+21
-3.349311e+21
-1.278987e+21
-1.399863e+20
-1.300188e+21
-3.304400e+21
-3.067618e+21
-6.597170e+19
-1.255277e+21
-1.833402e+21
-2.091385e+21
8.042868e+18
1.147044e+21
-1.759387e+21
-2.017370e+21
-1.809692e+21
1.221059e+21
-1.714477e+21
-5.463717e+20
-1.735677e+21
-1.993660e+21
1.057678e+20
-1.432783e+21
-1.661662e+21
-2.850968e+21
-1.711967e+21
-1.358769e+21
-1.616752e+21
-1.379969e+21
-1.637952e+21
-4.573487e+21
-1.457533e+20
-1.335059e+21
-1.563937e+21
-2.171166e+21
-3.331368e+21
-3.297214e+20
-1.220429e+20
-2.097152e+21
-3.286457e+21
-2.118352e+21
-4.802833e+19
-2.052241e+21
-1.815459e+21
-2.073441e+21
-3.233643e+21
1.164987e+21
-8.392252e+20
-1.999427e+21
-2.257409e+21
-2.020627e+21
-7.652107e+20
-1.954516e+21
-7.864110e+20
-1.975716e+21
-3.950825e+21
-4.835176e+20
-7.123965e+20
-9.703792e+20
-2.508931e+21
-2.737809e+21
-6.674857e+20
5.006192e+20
-2.434916e+21
-2.692899e+21
-2.456116e+21
5.455299e+20
-6.146716e+20
-1.221900e+21
-2.411206e+21
-2.640085e+21
1.758546e+21
-1.147886e+21
-1.405868e+21
-2.595174e+21
-1.427069e+21
-1.102975e+21
-2.263176e+21
-2.055498e+21
-2.284377e+21
-5.219912e+21
-8.212819e+20
-1.050161e+21
-2.239466e+21
-2.817591e+21
-4.006896e+21
-1.005250e+21
-7.684677e+20
-1.026450e+21
-3.932882e+21
-2.793881e+21
-7.235569e+20
-9.524359e+20
-2.490987e+21
-2.719866e+21
-2.977849e+21
4.894587e+20
-1.485650e+21
-2.674955e+21
-1.506850e+21
-2.696156e+21
-1.411635e+21
-2.600941e+21
-1.461940e+21
-2.622141e+21
-4.626354e+21
-1.129942e+21
-1.387925e+21
-1.645908e+21
-1.409125e+21
-3.413338e+21
-1.313911e+21
-1.749094e+20
-1.364215e+21
-3.339323e+21
1.279841e+20
-1.008948e+20
-1.290200e+21
-1.897429e+21
-2.126308e+21
-5.598411e+19
1.112121e+21
-1.823414e+21
-2.052293e+21
-1.844615e+21
1.157032e+21
-1.749400e+21
-6.103986e+20
-1.770600e+21
-2.028583e+21
4.174081e+19
-1.467707e+21
-1.725689e+21
-2.885891e+21
-1.746890e+21
-1.422796e+21
-1.651675e+21
-1.443996e+21
-1.672875e+21
-4.608410e+21
-2.097802e+20
-1.369982e+21
-1.627964e+21
-2.206089e+21
-3.395395e+21
-3.646446e+20
-1.569660e+20
-2.161179e+21
-3.321380e+21
-2.182379e+21
-8.295148e+19
-2.087164e+21
-1.879486e+21
-2.108364e+21
-3.297670e+21
1.130064e+21
-8.741484e+20
-2.063454e+21
-2.292333e+21
-2.084654e+21
-8.001338e+20
-1.989439e+21
-8.504380e+20
-2.010640e+21
-4.014852e+21
-5.184407e+20
-7.764235e+20
-1.005302e+21
-2.543854e+21
-2.801836e+21
-7.024089e+20
4.365922e+20
-2.469839e+21
-2.727822e+21
-2.520143e+21
5.106068e+20
-6.786985e+20
-1.256823e+21
-2.446129e+21
-2.704111e+21
1.723622e+21
-1.211913e+21
-1.440792e+21
-2.630097e+21
-1.491096e+21
-1.137898e+21
-2.327203e+21
-2.090421e+21
-2.348404e+21
-5.254835e+21
-8.562050e+20
-1.114188e+21
-2.274389e+21
-2.881618e+21
-4.041819e+21
-1.040173e+21
-8.324947e+20
-1.061374e+21
-3.996909e+21
-2.828804e+21
-7.584801e+20
-1.016463e+21
-2.525910e+21
-2.783893e+21
-3.012772e+21
4.545356e+20
-1.520573e+21
-2.709878e+21
-1.570877e+21
-2.731079e+21
-1.475662e+21
-2.635864e+21
-1.496863e+21
-2.686168e+21
-4.661277e+21
-1.193969e+21
-1.422848e+21
-1.680831e+21
-1.473152e+21
-3.448261e+21
-1.377937e+21
-2.098326e+20
-1.399138e+21
-3.403350e+21
9.306093e+19
-1.649218e+20
-1.325123e+21
-1.932352e+21
-2.161231e+21
-3.350536e+21
-2.211535e+21
-5.117966e+21
1.143309e+21
1.380091e+21
1.122108e+21
-1.813427e+21
-6.453218e+20
-1.834627e+21
-2.063506e+21
-3.252811e+21
-3.860040e+21
-5.020242e+21
3.097112e+20
1.477816e+21
-1.457719e+21
-1.715702e+21
-1.478919e+21
-1.736902e+21
-4.643333e+21
-3.504332e+21
-4.664534e+21
-4.922517e+21
9.895127e+20
-1.706888e+20
-4.286716e+20
-1.918892e+20
-2.196102e+21
-3.385407e+21
-2.217302e+21
-3.406607e+21
-5.381716e+21
-5.174038e+21
1.087238e+21
-7.296389e+19
-3.309466e+20
-9.090715e+20
-2.098377e+21
-2.356360e+21
-2.119577e+21
-4.123790e+21
-5.283991e+21
-4.144990e+21
1.214066e+21
-7.901462e+20
-5.824677e+20
-8.113466e+20
-1.069329e+21
-2.578777e+21
-2.836760e+21
-4.026065e+21
-2.857960e+21
7.257629e+20
4.968840e+20
7.045626e+20
4.465798e+20
-7.136217e+20
-1.320850e+21
-2.481052e+21
-2.739035e+21
-1.600034e+21
-4.506465e+21
1.754810e+21
5.946089e+20
1.733610e+21
-1.172821e+21
-2.362127e+21
-2.154448e+21
-2.383327e+21
-5.318862e+21
-4.150757e+21
-4.408740e+21
9.212128e+20
3.430879e+20
-8.462174e+20
-1.075096e+21
-8.674178e+20
-1.125401e+21
-4.031832e+21
-2.892831e+21
-4.053032e+21
-4.311015e+21
6.696917e+20
4.408128e+20
1.828301e+20
4.196124e+20
-1.584600e+21
-2.744802e+21
-1.605801e+21
-2.795106e+21
-4.770215e+21
-5.959520e+21
1.727843e+21
5.385377e+20
-1.465675e+21
-1.228892e+21
-1.486875e+21
-1.715754e+21
-1.508076e+21
-3.512288e+21
-4.672490e+21
-3.533489e+21
1.825568e+21
-1.786446e+20
2.903395e+19
-1.998450e+20
-1.389150e+21
-1.967275e+21
-2.225258e+21
-3.385459e+21
-2.246458e+21
-5.181993e+21
1.108386e+21
1.316064e+21
1.087185e+21
-1.848350e+21
-7.093488e+20
-1.869550e+21
-2.127533e+21
-3.287734e+21
-3.894963e+21
-5.084269e+21
2.747880e+20
1.413789e+21
-1.492642e+21
-1.750625e+21
-1.542946e+21
-1.771825e+21
-4.707360e+21
-3.539256e+21
-4.728561e+21
-4.957440e+21
9.545895e+20
-2.347158e+20
-4.635947e+20
-2.559162e+20
-2.231025e+21
-3.420330e+21
-2.281329e+21
-3.441531e+21
-5.445743e+21
-5.208961e+21
1.052314e+21
-1.369909e+20
-3.658698e+20
-9.730985e+20
-2.133300e+21
-2.391283e+21
-2.183604e+21
-4.158713e+21
-5.348018e+21
2.339345e+21
1.150039e+21
-8.250694e+20
-6.173908e+20
-8.753736e+20
-1.104252e+21
-2.642804e+21
-2.871683e+21
-4.060988e+21
-2.921987e+21
6.908398e+20
4.328571e+20
6.696394e+20
4.116567e+20
-7.776487e+20
-1.355774e+21
-2.545079e+21
-2.773958e+21
-1.634957e+21
-4.570492e+21
1.719887e+21
5.305820e+20
1.698687e+21
-1.236848e+21
-2.397050e+21
-2.189371e+21
-2.447354e+21
-5.353785e+21
-4.214784e+21
-4.443663e+21
8.862896e+20
2.790609e+20
-8.811406e+20
-1.139123e+21
-9.023409e+20
-1.160324e+21
-4.095859e+21
-2.927754e+21
-4.117059e+21
-4.345938e+21
6.347686e+20
3.767858e+20
1.479069e+20
3.555855e+20
-1.619523e+21
-2.808829e+21
-1.640724e+21
-2.830029e+21
-4.834242e+21
-5.994443e+21
1.663816e+21
5.036146e+20
-1.500598e+21
-1.292919e+21
-1.521798e+21
-1.779781e+21
-1.542999e+21
-3.547211e+21
-4.736517e+21
-3.568412e+21
1.761541e+21
-2.135677e+20
-5.889190e+18
-2.638719e+20
-1.424073e+21
-2.031302e+21
-2.260181e+21
-3.449486e+21
-2.281381e+21
-5.216917e+21
1.044359e+21
1.281141e+21
1.023158e+21
-1.883273e+21
-2.141256e+21
-1.933577e+21
-2.162456e+21
-3.351761e+21
-3.929886e+21
-5.119192e+21
2.107610e+20
1.378866e+21
-1.556669e+21
-1.785548e+21
-1.577870e+21
-1.835852e+21
-4.742284e+21
-3.603283e+21
-4.763484e+21
-5.021467e+21
9.196664e+20
-2.696389e+20
-5.276217e+20
-2.908393e+20
-2.295052e+21
-3.455253e+21
-2.316252e+21
-3.505558e+21
-5.480666e+21
-5.272988e+21
1.017391e+21
-1.719140e+20
-4.298968e+20
-1.008022e+21
-2.197327e+21
-2.426206e+21
-2.218527e+21
-4.222740e+21
-5.382941e+21
2.275318e+21
1.115116e+21
-8.890963e+20
-6.523140e+20
-9.102967e+20
-1.168279e+21
-2.677727e+21
-2.935710e+21
-4.095911e+21
-2.956910e+21
6.268128e+20
3.979339e+20
6.056124e+20
3.767335e+20
-8.125718e+20
-1.419801e+21
-2.580002e+21
-2.837985e+21
-1.669880e+21
-4.605415e+21
1.655860e+21
4.956588e+20
1.634660e+21
-1.271771e+21
-1.529754e+21
-2.224294e+21
-2.482277e+21
-5.417812e+21
-4.249707e+21
-5.439013e+21
8.513665e+20
2.441378e+20
-9.451675e+20
-1.174046e+21
-9.663679e+20
-1.195247e+21
-4.130782e+21
-2.991781e+21
-4.151982e+21
-4.409965e+21
5.998455e+20
3.418627e+20
8.387996e+19
3.206623e+20
-1.683550e+21
-2.843752e+21
-3.101734e+21
-2.864952e+21
-4.869165e+21
-6.058470e+21
1.628893e+21
4.395876e+20
-1.535521e+21
-1.327843e+21
-1.585825e+21
-1.814704e+21
-1.607026e+21
-3.582134e+21
-4.771440e+21
-3.632439e+21
1.726618e+21
-2.775947e+20
-4.081234e+19
-2.987951e+20
-1.488100e+21
-2.066225e+21
-2.324208e+21
-3.484410e+21
-2.345408e+21
-5.251840e+21
1.009436e+21
1.217114e+21
9.882352e+20
-1.947300e+21
-2.176179e+21
-1.968500e+21
-2.226483e+21
-3.386685e+21
-3.993913e+21
-5.154115e+21
1.758379e+20
1.314839e+21
-1.591592e+21
-1.849575e+21
-1.612793e+21
-1.870775e+21
-4.806311e+21
-3.638206e+21
-4.827511e+21
-5.056390e+21
8.556394e+20
-3.045621e+20
-5.625448e+20
-3.548663e+20
-2.329975e+21
-3.519280e+21
-2.351175e+21
-3.540481e+21
-5.544693e+21
1.211347e+21
9.533643e+20
-2.068372e+20
-4.648199e+20
-1.072049e+21
-2.232250e+21
-2.490233e+21
-2.253450e+21
-4.257663e+21
-5.446968e+21
2.240395e+21
1.051089e+21
-9.240195e+20
-7.163409e+20
-9.452199e+20
-1.203203e+21
-2.741754e+21
-2.970633e+21
-4.159938e+21
-2.991833e+21
5.918897e+20
3.339069e+20
5.706893e+20
3.127066e+20
-8.474949e+20
-1.454724e+21
-2.644029e+21
-2.872908e+21
-1.733907e+21
-4.640338e+21
1.620937e+21
4.316319e+20
1.599737e+21
-1.335798e+21
-1.564677e+21
-2.288321e+21
-2.517200e+21
-5.452735e+21
-4.313734e+21
-5.473936e+21
7.873395e+20
2.092146e+20
-9.800907e+20
-1.238073e+21
-1.001291e+21
-1.259274e+21
-4.165705e+21
-3.026704e+21
-4.216009e+21
-4.444888e+21
5.358185e+20
3.069396e+20
4.895681e+19
2.566354e+20
-1.718473e+21
-2.907779e+21
-3.136658e+21
-2.928979e+21
-4.904088e+21
-6.093393e+21
1.564866e+21
4.046645e+20
-1.599548e+21
-1.362766e+21
-1.620748e+21
-1.878731e+21
-1.641949e+21
-3.646161e+21
-4.806363e+21
-3.667362e+21
1.662591e+21
-3.125178e+20
-1.048393e+20
-3.337182e+20
-1.523024e+21
-2.130252e+21
-2.359131e+21
-3.548437e+21
-2.380332e+21
-5.315867e+21
9.745124e+20
1.182191e+21
9.242082e+20
-1.982223e+21
-2.240206e+21
-2.003424e+21
-2.261406e+21
-3.450712e+21
-4.028836e+21
-4.286819e+21
1.409147e+20
1.279916e+21
-1.655619e+21
-1.884498e+21
-1.676820e+21
-1.905699e+21
-4.841234e+21
-3.702233e+21
-4.862434e+21
-5.120417e+21
8.207163e+20
-3.685891e+20
-5.974680e+20
-3.897894e+20
-2.394002e+21
-3.554203e+21
-2.415202e+21
-3.575404e+21
-5.579616e+21
1.147320e+21
9.184412e+20
-2.708641e+20
-4.997430e+20
-1.106972e+21
-2.296277e+21
-2.525156e+21
-2.317477e+21
-4.292586e+21
-5.481892e+21
2.176368e+21
1.016166e+21
-9.880465e+20
-7.512641e+20
-1.009247e+21
-1.238126e+21
-2.776677e+21
-3.034660e+21
-4.194861e+21
-3.055860e+21
5.569665e+20
2.989838e+20
5.066623e+20
2.777834e+20
-9.115219e+20
-1.489647e+21
-2.678952e+21
-2.936935e+21
-3.165814e+21
-4.704365e+21
1.586014e+21
3.967087e+20
1.564814e+21
-1.370721e+21
-1.628704e+21
-2.323244e+21
-2.581227e+21
-5.487659e+21
-4.348657e+21
-5.537963e+21
7.524164e+20
1.451877e+20
-1.015014e+21
-1.272997e+21
-1.065318e+21
-1.294197e+21
-4.229732e+21
-3.061627e+21
-4.250932e+21
-4.508915e+21
5.008953e+20
2.429126e+20
1.403367e+19
2.217122e+20
-1.753397e+21
-2.942702e+21
-3.200685e+21
-2.963902e+21
-4.968115e+21
-6.128316e+21
1.529943e+21
3.406375e+20
-1.634471e+21
-1.426793e+21
-1.655672e+21
-1.913654e+21
-1.705976e+21
-3.681085e+21
-4.870390e+21
-3.702285e+21
1.627668e+21
-3.765448e+20
-1.397625e+20
-3.977452e+20
-1.557947e+21
-2.165175e+21
-2.394054e+21
-3.583360e+21
-2.444359e+21
-5.350790e+21
9.104854e+20
1.147268e+21
8.892850e+20
-2.046250e+21
-2.275129e+21
-2.067450e+21
-2.296329e+21
-3.485635e+21
-4.092863e+21
-4.321742e+21
7.688777e+19
1.244993e+21
-1.690542e+21
-1.948525e+21
-1.711743e+21
-1.969726e+21
-4.876157e+21
-3.737156e+21
-4.897357e+21
-5.155340e+21
7.566893e+20
-4.035122e+20
-6.614949e+20
-4.247126e+20
-2.428925e+21
-3.618230e+21
-2.450126e+21
-3.639431e+21
-5.614540e+21
1.112397e+21
8.544142e+20
-3.057873e+20
-5.637700e+20
-1.141895e+21
-2.331200e+21
-2.589183e+21
-2.352401e+21
-4.356613e+21
-5.516815e+21
2.141444e+21
9.812430e+20
-1.022970e+21
-8.152911e+20
-1.044170e+21
-2.233475e+21
-2.811600e+21
-3.069583e+21
-4.258888e+21
-3.090783e+21
4.929396e+20
2.640606e+20
4.717392e+20
2.137564e+20
-9.464451e+20
-1.553674e+21
-2.713875e+21
-2.971858e+21
-3.229841e+21
-4.739288e+21
1.521987e+21
3.617856e+20
1.500787e+21
-1.405645e+21
-1.663627e+21
-2.387271e+21
-2.616150e+21
-5.551685e+21
-4.383581e+21
-5.572886e+21
6.883894e+20
1.102645e+20
-1.079041e+21
-1.307920e+21
-1.100241e+21
-1.358224e+21
-4.264655e+21
-3.125654e+21
-4.285856e+21
-4.543838e+21
4.368684e+20
2.079894e+20
-4.999331e+19
1.867891e+20
-1.817424e+21
-2.977625e+21
-3.235608e+21
-3.027929e+21
-5.003038e+21
-6.192343e+21
1.495020e+21
3.057144e+20
-1.698498e+21
-1.461716e+21
-1.719699e+21
-1.948578e+21
-1.740899e+21
-3.745112e+21
-4.905313e+21
-3.766312e+21
1.592745e+21
-4.114680e+20
-2.037894e+20
-4.326683e+20
-1.621974e+21
-2.200099e+21
-2.458081e+21
-3.618283e+21
-2.479282e+21
-5.414817e+21
8.755623e+20
1.083241e+21
8.543619e+20
-2.081173e+21
-2.339156e+21
-2.102374e+21
-2.360356e+21
-3.520558e+21
-4.127787e+21
-4.385769e+21
4.196462e+19
1.180966e+21
-1.725466e+21
-1.983448e+21
-1.775770e+21
-2.004649e+21
-4.940184e+21
-3.772079e+21
-4.961384e+21
1.328995e+21
7.217662e+20
-4.675392e+20
-6.964181e+20
-4.887395e+20
-2.463848e+21
-3.653154e+21
-2.514153e+21
-3.674354e+21
-5.678567e+21
-3.195100e+20
8.194911e+20
-3.698142e+20
-5.986932e+20
-1.205922e+21
-2.366123e+21
-2.624106e+21
-2.416428e+21
-4.391536e+21
-5.580842e+21
2.106521e+21
9.172160e+20
-1.057893e+21
-8.502142e+20
-1.108197e+21
-2.268398e+21
-2.875627e+21
-3.104506e+21
-4.293811e+21
-3.154810e+21
4.580164e+20
2.000337e+20
4.368160e+20
1.788333e+20
-1.010472e+21
-1.588597e+21
-2.777902e+21
-3.006781e+21
-3.264764e+21
-4.803315e+21
1.487064e+21
2.977586e+20
1.465864e+21
-1.469672e+21
-1.698551e+21
-1.490872e+21
-2.680177e+21
-5.586609e+21
-4.447608e+21
-5.607809e+21
6.534663e+20
4.623754e+19
-1.113964e+21
-1.371947e+21
-1.135164e+21
-1.393147e+21
-4.328682e+21
-3.160577e+21
-4.349883e+21
-4.578762e+21
4.019452e+20
1.439625e+20
-8.491645e+19
1.227621e+20
-9.210241e+20
-3.041652e+21
-2.339208e+21
-3.062852e+21
-4.135742e+21
-6.227266e+21
2.362315e+21
2.707912e+20
-8.020988e+20
-1.525743e+21
-2.685944e+21
-2.012604e+21
-2.707145e+21
-3.780035e+21
-5.900663e+21
-3.801235e+21
5.973951e+20
-4.463911e+20
-1.170035e+21
-4.966953e+20
-2.588219e+21
-2.264126e+21
-3.424327e+21
-3.682310e+21
-3.445527e+21
-5.449740e+21
-1.197873e+20
1.048318e+21
-1.409877e+20
-2.116096e+21
-3.305402e+21
-2.166401e+21
-3.326602e+21
-3.584585e+21
-5.094032e+21
-4.420692e+21
-2.206235e+19
2.077365e+21
-1.789493e+21
-1.087049e+21
-1.810693e+21
-1.137353e+21
-4.975107e+21
-2.904783e+21
-4.996307e+21
2.196290e+21
6.868430e+20
4.288603e+20
-7.604451e+20
4.076599e+20
-2.527875e+21
-2.756754e+21
-2.549076e+21
-2.807058e+21
-5.713490e+21
5.477856e+20
7.845679e+20
5.265852e+20
-6.627201e+20
-3.095225e+20
-2.430150e+21
-1.727707e+21
-2.451351e+21
-3.524241e+21
-5.615765e+21
1.111172e+21
8.822929e+20
-2.053242e+21
-8.851374e+20
-2.074443e+21
-2.332425e+21
-3.841873e+21
-3.168533e+21
-5.260057e+21
-3.189733e+21
-5.373331e+20
1.651105e+20
-5.585335e+20
1.439101e+20
-1.976718e+21
-1.652624e+21
-3.744148e+21
-3.070808e+21
-4.231010e+21
-4.838238e+21
4.917144e+20
2.628354e+20
4.705140e+20
-1.504595e+21
-2.693900e+21
-1.525795e+21
-2.715100e+21
-4.719313e+21
-4.482531e+21
-4.740513e+21
6.185431e+20
9.426370e+20
-1.177991e+21
-4.755473e+20
-1.199191e+21
-4.967476e+20
-4.363605e+21
-2.293282e+21
-4.384806e+21
-3.711466e+21
3.670221e+20
1.040362e+21
-1.489434e+20
1.019162e+21
-1.916374e+21
-2.145253e+21
-3.334558e+21
-2.166453e+21
-5.101988e+21
-5.359971e+21
1.396070e+21
1.138087e+21
-1.768345e+21
-2.491989e+21
-1.818649e+21
-2.978850e+21
-1.839849e+21
-4.746280e+21
-5.004263e+21
-4.796585e+21
1.493794e+21
-1.441741e+21
-2.736357e+20
-1.462941e+21
-1.720924e+21
-3.230371e+21
-2.557031e+21
-4.648555e+21
-2.578232e+21
-6.415986e+21
7.766122e+20
-1.344016e+21
7.554118e+20
-3.111446e+21
-2.409002e+21
-3.132646e+21
-2.459307e+21
-4.550831e+21
-4.226737e+21
1.132320e+21
8.743371e+20
1.082016e+21
-8.930931e+20
-2.082398e+21
-9.142935e+20
-2.103599e+21
-4.107811e+21
-3.871029e+21
-4.129012e+21
1.230045e+21
1.554139e+21
-5.373855e+20
1.359544e+20
-5.876897e+20
-1.631476e+21
-3.752104e+21
-1.652676e+21
-3.773304e+21
-3.099964e+21
-4.184602e+20
1.651864e+21
-4.396605e+20
2.336793e+20
-1.304872e+21
-1.533751e+21
-2.723056e+21
-1.554951e+21
-4.490486e+21
-6.611114e+21
2.007571e+21
-1.130567e+20
-1.156843e+21
-1.880487e+21
-1.178043e+21
-3.298671e+21
-2.974577e+21
-4.134779e+21
-4.392762e+21
-4.155979e+21
3.590663e+20
-8.302390e+20
3.378659e+20
-8.514394e+20
-1.080318e+21
-2.618870e+21
-2.876852e+21
-4.037054e+21
-3.363714e+21
-5.804484e+21
1.388114e+21
-7.325141e+20
1.366913e+21
-2.499944e+21
-1.797501e+21
-2.521145e+21
-1.818701e+21
-5.685559e+21
-3.615235e+21
-5.706759e+21
1.485839e+21
-2.360875e+19
-2.815915e+20
-1.470897e+21
-3.027919e+20
-1.492097e+21
-3.467206e+21
-3.259527e+21
-3.517510e+21
-4.677712e+21
1.234318e+21
7.411617e+19
7.474560e+20
-1.373172e+21
-1.019974e+21
-3.140602e+21
-2.438158e+21
-3.161802e+21
-4.205589e+21
-6.326217e+21
2.263365e+21
1.718411e+20
-9.010489e+20
-1.595589e+21
-2.784894e+21
-2.111555e+21
-2.806095e+21
-3.878985e+21
-5.970509e+21
-3.900185e+21
4.984449e+20
-5.453412e+20
-1.268985e+21
-5.665416e+20
-2.687170e+21
-2.363076e+21
-3.523277e+21
-3.781260e+21
-3.544478e+21
-5.548690e+21
-1.896336e+20
-4.476163e+20
-2.399378e+20
-2.215047e+21
-3.404352e+21
-2.236247e+21
-3.425552e+21
-3.683535e+21
-5.192982e+21
1.999615e+21
-9.190864e+19
1.978415e+21
-1.888443e+21
-1.185999e+21
-1.909643e+21
-1.207199e+21
-5.074057e+21
-3.003733e+21
-5.095258e+21
2.097340e+21
-3.434297e+20
3.299101e+20
-8.302914e+20
3.087098e+20
-2.626825e+21
-2.855704e+21
-2.648026e+21
-2.876905e+21
-4.066210e+21
4.488354e+20
6.856178e+20
4.276351e+20
-7.325664e+20
-4.084726e+20
-2.529100e+21
-1.826657e+21
-2.550301e+21
-3.594087e+21
-5.714715e+21
1.041325e+21
7.833427e+20
-2.152192e+21
-9.840875e+20
-2.173393e+21
-2.402272e+21
-3.940823e+21
-3.267483e+21
-5.359007e+21
-3.288684e+21
-6.071794e+20
6.616040e+19
-6.574836e+20
4.496002e+19
-2.075668e+21
-1.722470e+21
-3.843098e+21
-3.169758e+21
-4.329960e+21
-4.937188e+21
4.218681e+20
1.638853e+20
4.006677e+20
-1.603545e+21
-2.792850e+21
-1.624745e+21
-2.814051e+21
-4.789159e+21
-4.581481e+21
-4.839464e+21
5.195930e+20
8.436869e+20
-1.247837e+21
-5.744974e+20
-1.298141e+21
-5.956978e+20
-4.462555e+21
-2.363128e+21
-4.483756e+21
-3.810416e+21
2.680719e+20
9.414118e+20
-2.187897e+20
-4.767725e+20
-1.986220e+21
-2.244203e+21
-3.433508e+21
-2.265403e+21
-5.200938e+21
-5.429817e+21
1.297119e+21
1.039137e+21
-1.867295e+21
-7.282935e+20
-1.888495e+21
-3.077800e+21
-1.938799e+21
-4.845231e+21
-5.103213e+21
-4.866431e+21
1.394844e+21
-1.540691e+21
-3.725858e+20
-1.561891e+21
-1.790770e+21
-3.329321e+21
-2.626878e+21
-4.747506e+21
-2.677182e+21
-6.514936e+21
6.776620e+20
-1.413862e+21
6.564617e+20
-3.210396e+21
-2.507952e+21
-3.231596e+21
-2.529153e+21
-4.649781e+21
-4.325687e+21
1.033370e+21
7.753870e+20
1.012169e+21
-9.920433e+20
-2.181349e+21
-1.013244e+21
-2.202549e+21
-4.177658e+21
-3.969979e+21
-4.198858e+21
1.131095e+21
5.238659e+20
-6.363356e+20
3.700425e+19
-6.575360e+20
-1.730426e+21
-3.851054e+21
-1.751626e+21
-3.872254e+21
-3.169811e+21
-5.174103e+20
1.552913e+21
-5.386107e+20
1.347292e+20
-1.374718e+21
-1.632701e+21
-2.822006e+21
-1.653901e+21
-4.589437e+21
-6.680961e+21
1.908621e+21
-1.829030e+20
-1.255793e+21
-1.979437e+21
-1.276993e+21
-3.397621e+21
-3.044424e+21
-4.233729e+21
-4.491712e+21
-4.254929e+21
2.601162e+20
-9.000853e+20
2.389158e+20
-9.503895e+20
-1.179268e+21
-4.114804e+21
-2.946699e+21
-4.136004e+21
-3.462664e+21
-5.903434e+21
1.289164e+21
-8.023604e+20
1.267963e+21
-2.569791e+21
-1.896451e+21
-2.620095e+21
-1.917651e+21
-5.784509e+21
-3.685081e+21
-5.805709e+21
1.386889e+21
-1.225589e+20
-3.805416e+20
-1.540743e+21
-4.017420e+20
-1.591047e+21
-3.566156e+21
-3.358478e+21
-3.587356e+21
-4.776662e+21
1.135368e+21
-2.483395e+19
6.485059e+20
-1.443018e+21
-1.118924e+21
-3.210448e+21
-2.537109e+21
-3.260753e+21
-4.304539e+21
-6.425167e+21
2.193519e+21
7.289097e+19
-9.999990e+20
-1.694539e+21
-2.883845e+21
-2.181401e+21
-2.905045e+21
-3.977935e+21
-6.069459e+21
-3.999135e+21
4.285986e+20
-6.442914e+20
-1.367935e+21
-6.654917e+20
-2.786120e+21
-2.432922e+21
-3.622227e+21
-3.851106e+21
-3.643428e+21
8.716178e+20
-2.885837e+20
-5.465664e+20
-3.097841e+20
-2.313997e+21
-3.503302e+21
-2.335197e+21
-3.524502e+21
-3.753381e+21
-5.291933e+21
1.900665e+21
-1.908588e+20
1.879465e+21
-1.958289e+21
-1.284949e+21
-2.008593e+21
-1.306150e+21
-5.173007e+21
-3.073580e+21
-5.194208e+21
2.027494e+21
-4.423798e+20
2.309600e+20
-9.292415e+20
2.097596e+20
-2.696672e+21
-2.954654e+21
-2.746976e+21
-2.975855e+21
-4.165160e+21
3.789891e+20
5.866677e+20
3.286849e+20
-8.315166e+20
-5.074227e+20
-2.598947e+21
-1.925607e+21
-2.649251e+21
-3.693037e+21
-5.813665e+21
9.423754e+20
6.843926e+20
-2.222039e+21
-1.083038e+21
-2.272343e+21
-2.501222e+21
-4.039773e+21
-3.337329e+21
-5.457957e+21
-3.387634e+21
-7.061295e+20
-3.278972e+19
-7.273299e+20
-5.399010e+19
-2.174618e+21
-3.218404e+21
-3.942048e+21
-3.239605e+21
-4.428910e+21
-5.036139e+21
3.229179e+20
6.493520e+19
3.017176e+20
-1.702495e+21
-2.862696e+21
-1.723695e+21
-2.913001e+21
-4.888109e+21
-4.680431e+21
-4.909310e+21
4.206429e+20
7.447367e+20
-1.346787e+21
-6.734475e+20
-1.367988e+21
-6.946479e+20
-4.561506e+21
-2.462078e+21
-4.582706e+21
-3.880262e+21
1.691218e+20
8.424617e+20
-3.177398e+20
-5.757226e+20
-2.085170e+21
-2.343153e+21
-3.503354e+21
-2.364353e+21
-5.299888e+21
-5.528767e+21
1.198169e+21
9.692904e+20
-1.966245e+21
-8.272436e+20
-1.987445e+21
-3.176750e+21
-2.008646e+21
-4.944181e+21
-5.202163e+21
-4.965381e+21
1.295894e+21
-1.610537e+21
-4.715360e+20
-1.660841e+21
-1.889720e+21
-3.428271e+21
-2.725828e+21
-4.846456e+21
-2.747028e+21
-9.462791e+19
5.787119e+20
-1.512812e+21
5.575115e+20
-3.280242e+21
-2.606903e+21
-3.330547e+21
-2.628103e+21
-4.748731e+21
-4.395533e+21
9.344196e+20
6.764368e+20
9.132192e+20
-1.090993e+21
-2.251195e+21
-1.112194e+21
-2.301499e+21
-4.276608e+21
-4.068929e+21
-4.297808e+21
1.032145e+21
4.540196e+20
-7.352857e+20
-6.194588e+19
-7.564861e+20
-1.829376e+21
-3.920900e+21
-3.247560e+21
-3.971204e+21
-3.268761e+21
-6.163604e+20
1.483067e+21
-6.375608e+20
3.577905e+19
-1.473668e+21
-1.731651e+21
-2.891853e+21
-1.752852e+21
-4.688387e+21
-4.917266e+21
1.809671e+21
-2.818531e+20
-1.354743e+21
-2.049283e+21
-1.375943e+21
-3.496571e+21
-3.143374e+21
-4.332679e+21
-4.561558e+21
-4.353879e+21
1.611661e+20
-9.990354e+20
1.399657e+20
-1.020236e+21
-1.278219e+21
-4.213754e+21
-3.045649e+21
-4.234954e+21
-3.532510e+21
-6.002384e+21
1.190214e+21
-9.013105e+20
1.169013e+21
-2.668741e+21
-1.995401e+21
-2.689941e+21
-2.016601e+21
-5.883459e+21
-3.784031e+21
-5.904659e+21
1.317042e+21
-2.215090e+20
-4.794917e+20
-1.639693e+21
-5.006921e+20
-1.660894e+21
-3.665106e+21
-3.457428e+21
-3.686307e+21
-4.875612e+21
1.065521e+21
-1.237841e+20
5.495558e+20
-1.541968e+21
-1.217874e+21
-3.309399e+21
-2.636059e+21
-3.330599e+21
-4.403489e+21
-6.524117e+21
2.094569e+21
-2.605915e+19
-1.069845e+21
-1.793489e+21
-2.982795e+21
-2.280351e+21
-3.003995e+21
-4.047781e+21
-6.168409e+21
2.421173e+21
3.296485e+20
-7.432415e+20
-1.437782e+21
-7.644419e+20
-2.885070e+21
-2.531872e+21
-4.652500e+21
-3.950056e+21
-3.742378e+21
8.017715e+20
-3.875338e+20
-6.455166e+20
-4.087342e+20
-2.412947e+21
-3.573148e+21
-2.434147e+21
-3.623452e+21
-3.852331e+21
-5.390883e+21
1.830819e+21
-2.898089e+20
1.780515e+21
-2.057239e+21
-1.383899e+21
-2.078439e+21
-1.405100e+21
-5.271957e+21
-3.172530e+21
-5.293158e+21
1.928544e+21
-5.413299e+20
1.611137e+20
-1.028192e+21
1.108095e+20
-2.795622e+21
-3.053605e+21
-4.213806e+21
-3.074805e+21
-4.264110e+21
2.800390e+20
4.877176e+20
2.588386e+20
-9.304667e+20
-6.063728e+20
-2.697897e+21
-2.024557e+21
-2.719097e+21
-3.791987e+21
-5.912615e+21
8.434252e+20
5.854425e+20
-2.320989e+21
-1.181988e+21
-2.342189e+21
-2.600172e+21
-4.138723e+21
-3.436280e+21
-5.556907e+21
-3.457480e+21
-8.050797e+20
-1.317398e+20
-8.262800e+20
-1.529402e+20
-2.244464e+21
-3.317354e+21
-4.040998e+21
-3.338555e+21
-4.527860e+21
-5.105985e+21
2.239678e+20
-3.401492e+19
2.027674e+20
-1.801445e+21
-2.961647e+21
-1.822646e+21
-2.982847e+21
-4.987060e+21
-4.779381e+21
-5.008260e+21
3.216927e+20
6.748904e+20
-1.445737e+21
-7.723976e+20
-1.466938e+21
-7.935980e+20
-4.631352e+21
-2.561028e+21
-4.681656e+21
-3.979212e+21
7.017171e+19
7.726154e+20
-4.166900e+20
-6.746727e+20
-2.184120e+21
-2.442103e+21
-3.602304e+21
-2.463303e+21
-5.369735e+21
-5.627717e+21
1.099219e+21
8.703403e+20
-2.065195e+21
-8.970899e+20
-2.086395e+21
-3.275701e+21
-2.107596e+21
-5.043131e+21
-5.272010e+21
1.454927e+21
1.196944e+21
-1.709487e+21
-5.704861e+20
-1.730688e+21
-1.988670e+21
-3.498118e+21
-3.756101e+21
-4.945406e+21
-4.242962e+21
-1.935780e+20
5.088656e+20
-1.611762e+21
4.585614e+20
-3.379192e+21
-2.705853e+21
-3.400393e+21
-2.727053e+21
-4.847681e+21
-4.494483e+21
8.354695e+20
6.065905e+20
8.142691e+20
-1.189943e+21
-2.350145e+21
-1.211144e+21
-2.371345e+21
-4.375558e+21
-4.138776e+21
-4.396758e+21
9.331944e+20
3.550695e+20
-8.342358e+20
-1.317922e+20
-8.554362e+20
-1.928326e+21
-4.019850e+21
-3.346510e+21
-4.041051e+21
-3.367711e+21
-7.153105e+20
1.384117e+21
-7.365109e+20
-3.406724e+19
-1.572619e+21
-1.830601e+21
-2.990803e+21
-1.851802e+21
-4.758233e+21
-5.016216e+21
1.739825e+21
-3.808032e+20
-1.453693e+21
-2.148233e+21
-1.474894e+21
-3.566418e+21
-3.242324e+21
-4.431629e+21
-4.660508e+21
-4.452830e+21
9.131976e+19
-1.097986e+21
4.101555e+19
-1.119186e+21
-1.377169e+21
-4.283600e+21
-3.144599e+21
-4.333904e+21
-3.631461e+21
-6.101334e+21
1.120367e+21
-1.000261e+21
1.099167e+21
-2.767691e+21
-2.094351e+21
-2.788891e+21
-2.115551e+21
-5.953305e+21
-3.882982e+21
-6.003610e+21
1.218092e+21
-3.204591e+20
-5.493380e+20
-1.738643e+21
-5.996422e+20
-1.759844e+21
-3.764056e+21
-3.527274e+21
-3.785257e+21
-4.974562e+21
-4.304127e+20
-2.227342e+20
4.797095e+20
-1.640918e+21
-1.287721e+21
-3.408349e+21
-2.735009e+21
-3.429549e+21
-4.502439e+21
-6.593963e+21
1.995619e+21
-1.250093e+20
-1.168795e+21
-1.892439e+21
-1.189996e+21
-2.379301e+21
-3.102945e+21
-4.146731e+21
-6.267359e+21
2.351326e+21
2.306984e+20
-8.421916e+20
-1.536732e+21
-8.633920e+20
-2.954916e+21
-2.630822e+21
-4.722346e+21
-4.049006e+21
-5.238312e+21
7.028214e+20
-4.864839e+20
-7.153628e+20
-5.076843e+20
-2.511897e+21
-3.672098e+21
-2.533097e+21
-3.693299e+21
-3.951281e+21
-5.489833e+21
1.731869e+21
-3.887590e+20
1.710669e+21
-2.156189e+21
-1.482849e+21
-2.177390e+21
-1.504050e+21
-5.341804e+21
-3.271480e+21
-5.363004e+21
1.829594e+21
-6.402800e+20
6.216361e+19
-1.127142e+21
4.096323e+19
-2.894572e+21
-3.152555e+21
-4.312756e+21
-3.173755e+21
-4.333957e+21
1.927319e+21
2.134997e+21
-1.586341e+21
-2.775647e+21
-6.762191e+20
-2.796847e+21
-2.123507e+21
-2.818047e+21
-2.144708e+21
-4.236232e+21
-1.001755e+21
-1.230634e+21
-2.419939e+21
-1.280938e+21
-2.441139e+21
-2.699122e+21
-2.462340e+21
-1.789000e+21
-7.402087e+21
-5.302660e+21
-9.040298e+20
-2.015861e+20
-9.252302e+20
-2.518903e+20
-2.343414e+21
-1.670075e+21
-2.364615e+21
-5.183735e+21
-6.373040e+21
-5.204935e+21
1.250177e+20
-1.038612e+20
1.038173e+20
-1.250616e+20
-1.314367e+21
-3.667825e+21
-4.828027e+21
-5.086010e+21
-4.849227e+21
-5.107210e+21
2.227426e+20
2.322170e+21
2.015423e+20
9.039859e+20
-3.312118e+21
-2.638778e+21
-4.730302e+21
-2.659978e+21
-4.751502e+21
-4.078163e+21
3.204676e+20
2.419895e+21
-3.193192e+21
-2.490749e+21
-2.283070e+21
-2.511949e+21
-3.701255e+21
-2.562253e+21
-3.722455e+21
2.538820e+21
-7.168569e+20
-9.748397e+20
-2.164145e+21
-9.960400e+20
-2.185345e+21
-3.345547e+21
-2.206546e+21
-3.395851e+21
-3.624730e+21
-3.902531e+20
-6.191320e+20
-1.808437e+21
-6.694362e+20
-1.829638e+21
-2.087620e+21
-1.850838e+21
-2.108821e+21
-6.761482e+21
-6.088142e+21
-2.925282e+20
4.099155e+20
-1.710712e+21
3.887151e+20
-1.731913e+21
-1.058573e+21
-5.245573e+21
-4.572233e+21
-6.663757e+21
-4.593433e+21
7.365193e+20
5.076404e+20
7.153190e+20
4.864400e+20
-7.028653e+20
-3.056324e+21
-4.216525e+21
-4.474508e+21
-4.237726e+21
-4.495708e+21
8.633481e+20
2.002349e+21
8.130439e+20
-1.976972e+21
-2.700616e+21
-1.998172e+21
-4.118800e+21
-3.445461e+21
-4.140001e+21
-3.466661e+21
9.610730e+20
3.031397e+21
-2.581691e+21
-1.879247e+21
-1.671569e+21
-1.900448e+21
-3.089753e+21
-1.950752e+21
-3.110953e+21
-3.368936e+21
-1.053553e+20
-2.225983e+21
-1.523540e+21
-2.247184e+21
-1.573844e+21
-3.665368e+21
-1.595044e+21
-2.755246e+21
-6.505688e+21
-6.298009e+21
-7.630360e+18
-1.196936e+21
-1.425815e+21
-1.218136e+21
-1.476119e+21
-2.636320e+21
-1.497319e+21
-6.149980e+21
-5.476641e+21
-6.200285e+21
1.021417e+21
-1.099211e+21
1.000217e+21
-1.120411e+21
-4.179675e+20
-4.634071e+21
-3.960731e+21
-6.052255e+21
-3.981932e+21
-6.073456e+21
1.119142e+21
1.326821e+21
1.097942e+21
-9.136364e+19
-2.415718e+21
-3.605024e+21
-3.863006e+21
-3.626224e+21
-3.884207e+21
-5.044408e+21
1.216867e+21
1.424546e+21
-2.296793e+21
-3.486098e+21
-1.386671e+21
-3.507299e+21
-2.804855e+21
-3.528499e+21
-2.855159e+21
1.572575e+21
1.504387e+20
-1.941085e+21
-1.267746e+21
-1.991390e+21
-1.288946e+21
-2.478251e+21
-3.172791e+21
-2.499452e+21
-4.620080e+21
5.061464e+20
-1.614482e+21
-9.120379e+20
-1.635682e+21
-9.623421e+20
-3.053866e+21
-9.835425e+20
-3.075067e+21
-5.894186e+21
-7.054388e+21
6.038713e+20
-5.854340e+20
-8.143130e+20
-6.066344e+20
-8.355133e+20
-2.024819e+21
-4.378277e+21
-5.538479e+21
-5.796461e+21
-5.559679e+21
1.632919e+21
-4.877091e+20
1.611718e+21
-5.089095e+20
1.935342e+20
-4.022570e+21
-3.349230e+21
-5.440754e+21
-3.370430e+21
-5.461954e+21
1.730644e+21
1.036103e+21
1.709443e+21
-2.972322e+21
-1.804217e+21
-2.993522e+21
-3.222401e+21
-4.411706e+21
-3.272705e+21
-4.432907e+21
1.828369e+21
2.065151e+21
-1.685291e+21
-2.874597e+21
-7.751692e+20
-2.895797e+21
-2.193353e+21
-2.916997e+21
-2.243658e+21
-4.335182e+21
7.619403e+20
-1.329584e+21
-2.518889e+21
-1.350784e+21
-2.540089e+21
-2.798072e+21
-2.561290e+21
-1.887950e+21
-7.471934e+21
-5.401610e+21
-1.002980e+21
-3.005363e+20
-2.421164e+21
-3.217366e+20
-2.442365e+21
-1.769025e+21
-2.463565e+21
-5.282685e+21
-6.442886e+21
-5.303885e+21
2.606759e+19
-2.028113e+20
4.867208e+18
-2.240117e+20
-1.413317e+21
-3.737672e+21
-4.926977e+21
-5.184960e+21
-4.948177e+21
-5.206160e+21
1.528963e+20
2.223220e+21
1.025921e+20
8.050358e+20
-3.411068e+21
-2.708624e+21
-4.829252e+21
-2.758928e+21
-4.850453e+21
2.342145e+21
2.506213e+20
2.320945e+21
-3.292143e+21
-2.589699e+21
-2.382020e+21
-2.610899e+21
-3.800205e+21
-2.632100e+21
-3.821405e+21
2.439870e+21
-8.158070e+20
-1.073790e+21
-2.233991e+21
-1.094990e+21
-2.284295e+21
-3.444497e+21
-2.305496e+21
-3.465697e+21
-3.723680e+21
-4.892032e+20
-7.180821e+20
-1.907387e+21
-7.392825e+20
-1.928588e+21
-2.186571e+21
-1.949788e+21
-2.207771e+21
-6.860432e+21
-6.187092e+21
-3.623744e+20
3.109654e+20
-1.809663e+21
2.897650e+20
-1.830863e+21
-1.128419e+21
-5.344523e+21
-4.671183e+21
-6.762707e+21
-4.692383e+21
6.666731e+20
4.086903e+20
6.163688e+20
3.874899e+20
-8.018154e+20
-3.126170e+21
-4.315475e+21
-4.573458e+21
-4.336676e+21
-4.594659e+21
7.643980e+20
1.903399e+21
7.431976e+20
-2.075922e+21
-4.196550e+21
-2.097123e+21
-4.217751e+21
-3.515307e+21
