0.000000e+00
2.077763e+30
7.692521e+31
5.756601e+32
3.361028e+33
2.009324e+34
3.677439e+34
8.811711e+34
5.958315e+35
1.029393e+36
1.048400e+36
1.166027e+36
1.528438e+36
1.565383e+36
2.033339e+36
2.500889e+36
2.789986e+36
4.804855e+36
4.374885e+36
5.131250e+36
5.427119e+36
5.329378e+36
5.005921e+36
6.262454e+36
5.791807e+36
7.876359e+36
9.573909e+36
8.218140e+36
8.429850e+36
9.199340e+36
1.036727e+37
1.980710e+37
3.287818e+37
3.170432e+37
3.244414e+37
3.404510e+37
3.237311e+37
3.629859e+37
3.601403e+37
3.415735e+37
3.981652e+37
3.828251e+37
3.021013e+37
3.009129e+37
2.935319e+37
2.827598e+37
4.292473e+37
3.920442e+37
5.289176e+37
5.578842e+37
5.100748e+37
7.633586e+37
7.303566e+37
7.563393e+37
8.030299e+37
7.747721e+37
6.526895e+37
6.954653e+37
5.652836e+37
5.585750e+37
1.146249e+38
1.235115e+38
1.219965e+38
1.210231e+38
1.388193e+38
1.568340e+38
1.613367e+38
1.561872e+38
1.557144e+38
1.632632e+38
1.043703e+38
6.257405e+37
6.462718e+37
6.828788e+37
9.702736e+37
9.937925e+37
1.196485e+38
1.314243e+38
1.316091e+38
1.232380e+38
1.221186e+38
1.293145e+38
1.460163e+38
1.499615e+38
9.894602e+37
7.846404e+37
5.324698e+37
4.143520e+37
9.191482e+37
9.521982e+37
1.981137e+38
2.269448e+38
2.163648e+38
2.244038e+38
2.323169e+38
2.322726e+38
2.477042e+38
2.821277e+38
2.735086e+38
2.942480e+38
2.867555e+38
2.704470e+38
3.225144e+38
3.146267e+38
3.080932e+38
3.079884e+38
2.941579e+38
3.549321e+38
5.153144e+38
4.912971e+38
3.959880e+38
3.794358e+38
4.998596e+38
5.078659e+38
5.104328e+38
7.244851e+38
7.206121e+38
6.744628e+38
5.460611e+38
7.850420e+38
7.861077e+38
7.842193e+38
6.067941e+38
8.029182e+38
7.988509e+38
5.892952e+38
7.649433e+38
7.380330e+38
8.583732e+38
6.233006e+38
6.225613e+38
6.268734e+38
8.671710e+38
6.667692e+38
6.705299e+38
7.392079e+38
5.635675e+38
5.479116e+38
3.878490e+38
4.171119e+38
4.854227e+38
5.442031e+38
3.082703e+38
3.097597e+38
3.206591e+38
4.736799e+38
5.751287e+38
5.830167e+38
5.563260e+38
5.888308e+38
6.129933e+38
7.887547e+38
8.621280e+38
8.850964e+38
8.723782e+38
6.574155e+38
5.562207e+38
5.823030e+38
6.163773e+38
6.088683e+38
5.205774e+38
4.962972e+38
5.538172e+38
5.228278e+38
6.049197e+38
5.957022e+38
8.768521e+38
9.321063e+38
9.223765e+38
1.025289e+39
1.100325e+39
9.369405e+38
1.271821e+39
1.437808e+39
2.015473e+39
2.083125e+39
1.817189e+39
1.749552e+39
1.746633e+39
1.693448e+39
1.643496e+39
1.646060e+39
1.177630e+39
1.065453e+39
1.089587e+39
1.119113e+39
1.220654e+39
1.655250e+39
1.633173e+39
1.554940e+39
1.623039e+39
1.576381e+39
1.788440e+39
1.796204e+39
1.112167e+39
2.177290e+39
2.201919e+39
1.762348e+39
1.895400e+39
1.876142e+39
1.907539e+39
1.909515e+39
1.748003e+39
1.703004e+39
1.850072e+39
9.803991e+38
8.526303e+38
8.505485e+38
1.214231e+39
1.250764e+39
1.248876e+39
1.315003e+39
1.634757e+39
2.501311e+39
2.352535e+39
2.555724e+39
2.657172e+39
3.300860e+39
3.167923e+39
3.119454e+39
3.023000e+39
2.989434e+39
3.044694e+39
2.626968e+39
2.776397e+39
2.438354e+39
3.472380e+39
2.807991e+39
2.840666e+39
3.002873e+39
4.112389e+39
4.069157e+39
3.846353e+39
3.590805e+39
3.461034e+39
4.803641e+39
4.974392e+39
6.084672e+39
5.743493e+39
6.277788e+39
5.940648e+39
5.941167e+39
5.816782e+39
6.004825e+39
6.003319e+39
4.690727e+39
3.646031e+39
2.645624e+39
2.944416e+39
2.344292e+39
3.042331e+39
3.175204e+39
4.882586e+39
4.655073e+39
4.651618e+39
4.477669e+39
5.152440e+39
5.060509e+39
4.892712e+39
4.808829e+39
3.335118e+39
3.416097e+39
2.754094e+39
2.710358e+39
2.748394e+39
3.848737e+39
2.900779e+39
2.947285e+39
2.816012e+39
3.699487e+39
3.939650e+39
3.730935e+39
3.074036e+39
2.958446e+39
2.905816e+39
2.093247e+39
2.149865e+39
2.397799e+39
3.835461e+39
3.033274e+39
3.327101e+39
3.466931e+39
5.761119e+39
5.937315e+39
7.102897e+39
6.807018e+39
6.865652e+39
6.956690e+39
5.737545e+39
6.478043e+39
5.925953e+39
6.766286e+39
4.039787e+39
3.958506e+39
2.808455e+39
3.154533e+39
3.207501e+39
2.828310e+39
2.623926e+39
2.073205e+39
2.198991e+39
2.859807e+39
3.299455e+39
3.187001e+39
4.151821e+39
3.814705e+39
3.853292e+39
3.939208e+39
5.524248e+39
5.240813e+39
5.125510e+39
3.622341e+39
3.180106e+39
3.527906e+39
2.852048e+39
3.308862e+39
3.117740e+39
3.642464e+39
2.460504e+39
2.536704e+39
2.517772e+39
4.796451e+39
5.404912e+39
5.259624e+39
5.552819e+39
5.079903e+39
5.900860e+39
5.449579e+39
8.178165e+39
8.290860e+39
1.127717e+40
8.934179e+39
8.411940e+39
8.235152e+39
7.931790e+39
8.023829e+39
7.263657e+39
8.278671e+39
5.077396e+39
4.926862e+39
2.182617e+39
2.149509e+39
2.522247e+39
3.754547e+39
3.663524e+39
4.569157e+39
4.510616e+39
5.940125e+39
6.257568e+39
7.187921e+39
6.943753e+39
6.903784e+39
6.897110e+39
5.919709e+39
6.060808e+39
5.379635e+39
5.613442e+39
2.995422e+39
2.674484e+39
1.779543e+39
2.335981e+39
2.393031e+39
1.908780e+39
1.637926e+39
1.293572e+39
3.178733e+39
6.409241e+39
7.542077e+39
7.717160e+39
8.530522e+39
8.038702e+39
8.745196e+39
9.078373e+39
9.702097e+39
9.976591e+39
7.813859e+39
4.975455e+39
3.835494e+39
3.713794e+39
3.389902e+39
4.780911e+39
4.030183e+39
4.983332e+39
4.496784e+39
4.407438e+39
4.645761e+39
4.046444e+39
5.149365e+39
5.463768e+39
5.104473e+39
3.761095e+39
5.905475e+39
4.766936e+39
8.217599e+39
8.611955e+39
8.520187e+39
8.478490e+39
7.675348e+39
7.535553e+39
7.566071e+39
7.933686e+39
6.060606e+39
6.821496e+39
3.227140e+39
2.770541e+39
2.612433e+39
2.624804e+39
2.996503e+39
4.820321e+39
5.140001e+39
6.337980e+39
6.726520e+39
7.226479e+39
7.865997e+39
8.326935e+39
9.709935e+39
9.845929e+39
9.885331e+39
7.830391e+39
7.276455e+39
5.700096e+39
5.685921e+39
6.259897e+39
6.843618e+39
6.788215e+39
7.938230e+39
9.052190e+39
8.662166e+39
9.107151e+39
9.303125e+39
1.175238e+40
1.208170e+40
1.151617e+40
1.035288e+40
1.231529e+40
9.863202e+39
9.220406e+39
9.156242e+39
1.471311e+40
1.544235e+40
1.292904e+40
1.410844e+40
1.273147e+40
1.935354e+40
1.686273e+40
1.807516e+40
1.780398e+40
1.983282e+40
1.443691e+40
1.472239e+40
1.599251e+40
2.305455e+40
2.416401e+40
1.848201e+40
1.852372e+40
1.804183e+40
1.966523e+40
1.780504e+40
1.766950e+40
1.903824e+40
1.989819e+40
1.067102e+40
9.979734e+39
1.020052e+40
1.428127e+40
1.359901e+40
1.244273e+40
1.288075e+40
1.295180e+40
1.839677e+40
1.626563e+40
2.221945e+40
2.199990e+40
2.194966e+40
1.788777e+40
1.797173e+40
1.734331e+40
1.957147e+40
2.090848e+40
1.291535e+40
1.287969e+40
7.490376e+39
1.115566e+40
1.094508e+40
1.285590e+40
1.264220e+40
1.511553e+40
1.378987e+40
1.191234e+40
1.199564e+40
1.505080e+40
1.455195e+40
1.081620e+40
1.179677e+40
1.029509e+40
1.707160e+40
1.440646e+40
1.339588e+40
1.376149e+40
1.990139e+40
1.685010e+40
1.689333e+40
1.676783e+40
2.079259e+40
2.089187e+40
1.408820e+40
1.626109e+40
1.553288e+40
2.315408e+40
1.691869e+40
1.926015e+40
2.000776e+40
2.447558e+40
1.912454e+40
1.878378e+40
1.962766e+40
2.243019e+40
2.419466e+40
1.683181e+40
1.683898e+40
1.490141e+40
1.768270e+40
1.321015e+40
1.566565e+40
1.674429e+40
1.682607e+40
1.185083e+40
1.128628e+40
1.074666e+40
1.660768e+40
1.634120e+40
1.271151e+40
1.267243e+40
1.109140e+40
1.335118e+40
1.254593e+40
1.448512e+40
1.539239e+40
1.597787e+40
1.011031e+40
1.107693e+40
1.114917e+40
1.441910e+40
1.316286e+40
9.732931e+39
9.793816e+39
8.669893e+39
1.031319e+40
1.058336e+40
1.142103e+40
1.045180e+40
1.675125e+40
1.348029e+40
1.677284e+40
1.710125e+40
2.814401e+40
2.733094e+40
2.407664e+40
2.533035e+40
2.532409e+40
2.870947e+40
2.246980e+40
2.588430e+40
2.557469e+40
2.931029e+40
1.822647e+40
1.831625e+40
1.836891e+40
2.112712e+40
2.029055e+40
1.826474e+40
1.900973e+40
1.858197e+40
1.713237e+40
1.727884e+40
1.774568e+40
2.408773e+40
2.408844e+40
2.041230e+40
2.039744e+40
2.006243e+40
2.259842e+40
2.087882e+40
1.912290e+40
1.568657e+40
1.816874e+40
1.974403e+40
1.923449e+40
2.047225e+40
2.211846e+40
2.100110e+40
1.799689e+40
1.707307e+40
1.794070e+40
1.740218e+40
1.606519e+40
8.091580e+39
8.206101e+39
6.864602e+39
8.955632e+39
9.002183e+39
1.306442e+40
1.354430e+40
1.402979e+40
1.370442e+40
1.270650e+40
1.348253e+40
1.511618e+40
1.395534e+40
1.231004e+40
1.271616e+40
8.230188e+39
1.577048e+40
1.454567e+40
1.784902e+40
1.730277e+40
2.421845e+40
2.245818e+40
2.336035e+40
2.128348e+40
3.633939e+40
3.659680e+40
2.825004e+40
2.817094e+40
2.483066e+40
2.659902e+40
1.985606e+40
2.216752e+40
2.128476e+40
2.519493e+40
1.375856e+40
1.352457e+40
1.355112e+40
1.812587e+40
1.868306e+40
1.676165e+40
1.592874e+40
1.468382e+40
1.752045e+40
1.371775e+40
2.003064e+40
2.507183e+40
2.533304e+40
2.099483e+40
2.042976e+40
2.037801e+40
2.308129e+40
2.359336e+40
2.095738e+40
2.482589e+40
1.535681e+40
1.583093e+40
1.622528e+40
1.628269e+40
1.871094e+40
2.518291e+40
2.249327e+40
2.087513e+40
2.091105e+40
2.079729e+40
2.307224e+40
1.772004e+40
2.039566e+40
2.090960e+40
3.020820e+40
2.555915e+40
2.597800e+40
2.596025e+40
2.848098e+40
2.472747e+40
2.319810e+40
2.380894e+40
2.246308e+40
2.168064e+40
1.007649e+40
8.595895e+39
8.422637e+39
1.351942e+40
1.268396e+40
1.274614e+40
1.135779e+40
1.784382e+40
1.593047e+40
2.546182e+40
2.533984e+40
4.320260e+40
4.280318e+40
3.982472e+40
3.797556e+40
3.879575e+40
4.041752e+40
3.361101e+40
3.900945e+40
3.126921e+40
3.677090e+40
1.941818e+40
1.942738e+40
1.736874e+40
1.991833e+40
1.943535e+40
1.882650e+40
1.908199e+40
1.505535e+40
1.600894e+40
1.246108e+40
1.743144e+40
2.723693e+40
2.892844e+40
2.673463e+40
2.669100e+40
2.588487e+40
3.064572e+40
2.938112e+40
2.687305e+40
2.908966e+40
2.422028e+40
1.457004e+40
1.399194e+40
1.355634e+40
1.528756e+40
1.476852e+40
9.360780e+39
1.131924e+40
1.315149e+40
1.246153e+40
1.737773e+40
1.875769e+40
1.834790e+40
1.847114e+40
3.013011e+40
3.015070e+40
3.417586e+40
3.230075e+40
3.015397e+40
2.671948e+40
2.295249e+40
2.151199e+40
2.076195e+40
2.397275e+40
1.194516e+40
1.313996e+40
9.370280e+39
1.525156e+40
1.553198e+40
2.092835e+40
1.944253e+40
2.876490e+40
2.883951e+40
2.584264e+40
2.947284e+40
4.479742e+40
4.451433e+40
3.860026e+40
3.883752e+40
3.412842e+40
3.803737e+40
2.915473e+40
2.995448e+40
3.143222e+40
2.932829e+40
1.293404e+40
1.357254e+40
1.429205e+40
2.042096e+40
1.974083e+40
1.536647e+40
1.510788e+40
1.680293e+40
2.221693e+40
2.063454e+40
2.055795e+40
2.403236e+40
2.423116e+40
2.855194e+40
2.883769e+40
2.875470e+40
3.102202e+40
2.851290e+40
2.146781e+40
2.074628e+40
2.081347e+40
1.711922e+40
1.599441e+40
5.583210e+39
5.300427e+39
5.795404e+39
6.247129e+39
8.584741e+39
9.434099e+39
8.668904e+39
1.710881e+40
1.768186e+40
2.235189e+40
2.181754e+40
4.407980e+40
4.450383e+40
4.194032e+40
4.188215e+40
4.111599e+40
4.379108e+40
3.560409e+40
3.669929e+40
3.241007e+40
3.544646e+40
1.316224e+40
1.343175e+40
1.298455e+40
1.336119e+40
1.348420e+40
1.103349e+40
1.273215e+40
1.339112e+40
1.545713e+40
1.383858e+40
1.792508e+40
2.891975e+40
3.016425e+40
2.793132e+40
2.812245e+40
2.818873e+40
3.028249e+40
2.759058e+40
2.513996e+40
2.693800e+40
2.296741e+40
1.093119e+40
1.012234e+40
1.001350e+40
1.348677e+40
1.352178e+40
9.660710e+39
1.032189e+40
1.230452e+40
1.113088e+40
1.854436e+40
2.040995e+40
2.088822e+40
2.435776e+40
2.372812e+40
2.324038e+40
2.302255e+40
2.599500e+40
3.116422e+40
3.925668e+40
3.745067e+40
3.792415e+40
3.704202e+40
3.837363e+40
4.100040e+40
4.248454e+40
4.626734e+40
4.520389e+40
5.826514e+40
5.891161e+40
6.144132e+40
6.041240e+40
6.364179e+40
5.853210e+40
5.246572e+40
5.241565e+40
5.036614e+40
5.188362e+40
3.530029e+40
5.059920e+40
5.360411e+40
6.196225e+40
5.875445e+40
6.101128e+40
7.400104e+40
8.229445e+40
8.242529e+40
8.089250e+40
8.049439e+40
6.838677e+40
6.937820e+40
6.188811e+40
6.284096e+40
6.100407e+40
5.523436e+40
5.627990e+40
6.111693e+40
5.885995e+40
6.526114e+40
5.203648e+40
4.553662e+40
5.393277e+40
5.899264e+40
6.090572e+40
5.434478e+40
5.643804e+40
6.282709e+40
6.376646e+40
5.444905e+40
5.900965e+40
6.648025e+40
6.591105e+40
6.216199e+40
5.979776e+40
5.934575e+40
4.764814e+40
4.022716e+40
5.700723e+40
5.968312e+40
7.150351e+40
7.435906e+40
6.650552e+40
7.187843e+40
7.266398e+40
7.473930e+40
7.442348e+40
7.017738e+40
6.889031e+40
7.405235e+40
5.752380e+40
5.203482e+40
6.322498e+40
6.227807e+40
6.680722e+40
6.602227e+40
6.717050e+40
7.232823e+40
6.088947e+40
6.956610e+40
6.904353e+40
6.323279e+40
6.366119e+40
6.005828e+40
6.786065e+40
6.645202e+40
6.436837e+40
7.672794e+40
7.772861e+40
6.709796e+40
6.994383e+40
6.513422e+40
5.129680e+40
5.272303e+40
4.960765e+40
5.053415e+40
5.313476e+40
3.728589e+40
4.066095e+40
4.224771e+40
6.489573e+40
6.499405e+40
6.494664e+40
7.751579e+40
6.749177e+40
6.991065e+40
6.751385e+40
6.441259e+40
7.215842e+40
8.412026e+40
7.417742e+40
7.675169e+40
7.736503e+40
7.468259e+40
7.673467e+40
7.469058e+40
7.542896e+40
8.463330e+40
6.800172e+40
4.889088e+40
4.431780e+40
6.436697e+40
6.560995e+40
5.145139e+40
5.787202e+40
5.698793e+40
5.623025e+40
5.062601e+40
5.003950e+40
6.321549e+40
6.596676e+40
4.844112e+40
4.649937e+40
4.619961e+40
4.140377e+40
5.184160e+40
5.230811e+40
4.866578e+40
5.273716e+40
6.956598e+40
5.750878e+40
5.364791e+40
5.406472e+40
5.412178e+40
5.575636e+40
4.537266e+40
5.507252e+40
5.619455e+40
6.206149e+40
3.490707e+40
4.811490e+40
5.446419e+40
5.809626e+40
5.969370e+40
5.505568e+40
6.525221e+40
7.540248e+40
7.924150e+40
6.902950e+40
6.686775e+40
6.039229e+40
5.997472e+40
6.436569e+40
6.515539e+40
6.546577e+40
6.438044e+40
4.425161e+40
4.726572e+40
5.421198e+40
6.155961e+40
5.569485e+40
5.000794e+40
6.202201e+40
6.920072e+40
6.859006e+40
6.277865e+40
6.804749e+40
6.394841e+40
6.325670e+40
5.533529e+40
6.488740e+40
8.721096e+40
7.060071e+40
6.970560e+40
6.940160e+40
6.562025e+40
6.158750e+40
7.068711e+40
8.118883e+40
8.067181e+40
8.213145e+40
7.770842e+40
7.412688e+40
6.763691e+40
6.988230e+40
7.023352e+40
7.937832e+40
8.821678e+40
9.232054e+40
9.233064e+40
7.870222e+40
5.976484e+40
6.652829e+40
7.139213e+40
6.934810e+40
7.382526e+40
6.928915e+40
6.210778e+40
4.654614e+40
7.050115e+40
7.054276e+40
6.999713e+40
7.475722e+40
7.174718e+40
7.563931e+40
7.423159e+40
6.871673e+40
7.176477e+40
7.295505e+40
5.960333e+40
5.954648e+40
6.138896e+40
8.974057e+40
8.755358e+40
9.246987e+40
9.035031e+40
9.153422e+40
7.630769e+40
7.158857e+40
6.429082e+40
7.296069e+40
8.001463e+40
4.096382e+40
5.043673e+40
4.586349e+40
4.936702e+40
5.039260e+40
4.811365e+40
5.236273e+40
5.139466e+40
4.624817e+40
3.745473e+40
3.696920e+40
3.213923e+40
4.077861e+40
3.743187e+40
3.466825e+40
3.739565e+40
5.669106e+40
5.606867e+40
5.260658e+40
5.368783e+40
5.643814e+40
5.125596e+40
4.062899e+40
6.726782e+40
7.633653e+40
7.352964e+40
4.857634e+40
7.500646e+40
9.279474e+40
9.275236e+40
9.936633e+40
1.111813e+41
1.224243e+41
1.005269e+41
9.440219e+40
9.551098e+40
9.531147e+40
6.808919e+40
6.772837e+40
7.948094e+40
7.315957e+40
6.430460e+40
7.007901e+40
6.379824e+40
6.497336e+40
6.584107e+40
6.818155e+40
7.150812e+40
5.573457e+40
5.582651e+40
6.749035e+40
6.908283e+40
6.262096e+40
6.925561e+40
7.299349e+40
7.601445e+40
7.348066e+40
7.499221e+40
8.964904e+40
8.486198e+40
8.409161e+40
7.852987e+40
6.565212e+40
6.783975e+40
6.218683e+40
6.541104e+40
6.952447e+40
6.480213e+40
6.884845e+40
6.988107e+40
6.080440e+40
6.045813e+40
7.215314e+40
6.485229e+40
6.267183e+40
7.394036e+40
7.715360e+40
7.689075e+40
6.329580e+40
6.284702e+40
7.613916e+40
8.818824e+40
7.730205e+40
7.823863e+40
1.144159e+41
9.662701e+40
9.360467e+40
9.291460e+40
8.701838e+40
7.999823e+40
8.037292e+40
8.368333e+40
8.349681e+40
8.164434e+40
7.171241e+40
7.121101e+40
7.092948e+40
7.123507e+40
7.761888e+40
8.149081e+40
6.687254e+40
7.141214e+40
8.990343e+40
9.000548e+40
6.374778e+40
7.594244e+40
7.310879e+40
7.843471e+40
7.145180e+40
6.880832e+40
8.091175e+40
7.241995e+40
6.055204e+40
6.234521e+40
6.216609e+40
5.021111e+40
5.603195e+40
5.388287e+40
5.367741e+40
5.370441e+40
4.999407e+40
4.223481e+40
3.478843e+40
3.228277e+40
3.270490e+40
3.118995e+40
3.412557e+40
3.982668e+40
4.704851e+40
5.013751e+40
3.729196e+40
4.834044e+40
6.401117e+40
8.102347e+40
8.174072e+40
8.169882e+40
1.043389e+41
1.017245e+41
9.445561e+40
9.267718e+40
9.419446e+40
8.716425e+40
8.758624e+40
7.228061e+40
7.131700e+40
7.128542e+40
4.023850e+40
4.063598e+40
5.274606e+40
5.490916e+40
6.854542e+40
6.111408e+40
4.972839e+40
5.749721e+40
6.243874e+40
6.517818e+40
6.406305e+40
6.763970e+40
9.270135e+40
9.100633e+40
7.879147e+40
8.085147e+40
9.178102e+40
8.230487e+40
8.364327e+40
8.089851e+40
8.456655e+40
7.823048e+40
4.739825e+40
5.800230e+40
5.499128e+40
5.271417e+40
5.172272e+40
5.410682e+40
5.094977e+40
5.223589e+40
4.816631e+40
4.364053e+40
3.828444e+40
3.349150e+40
3.367713e+40
5.203677e+40
4.517299e+40
4.443429e+40
5.680648e+40
7.231616e+40
7.507411e+40
8.348774e+40
8.911796e+40
9.595980e+40
1.076522e+41
8.940259e+40
8.464320e+40
1.082672e+41
9.309516e+40
8.659870e+40
8.419948e+40
7.640580e+40
8.689166e+40
7.512580e+40
7.571525e+40
7.670892e+40
7.382230e+40
4.895460e+40
6.639728e+40
6.214001e+40
7.056968e+40
7.245263e+40
6.945439e+40
7.192144e+40
6.841756e+40
9.347802e+40
9.519271e+40
9.584522e+40
9.706892e+40
9.484085e+40
8.650494e+40
9.055719e+40
7.734340e+40
7.374994e+40
7.866707e+40
5.715232e+40
6.130376e+40
6.611911e+40
5.263873e+40
5.880856e+40
6.242792e+40
5.741969e+40
6.307212e+40
5.859222e+40
4.592522e+40
4.709315e+40
5.389944e+40
4.810510e+40
4.629933e+40
6.490761e+40
6.638668e+40
7.494884e+40
7.202771e+40
7.217796e+40
9.356504e+40
9.590160e+40
9.487144e+40
9.647979e+40
9.322310e+40
8.434238e+40
9.302884e+40
8.288804e+40
8.426334e+40
8.807716e+40
7.960846e+40
8.185954e+40
7.102810e+40
6.936479e+40
6.900302e+40
5.986028e+40
4.623311e+40
6.724463e+40
6.238049e+40
7.516921e+40
6.445241e+40
7.463793e+40
7.965011e+40
8.189015e+40
8.186930e+40
7.262453e+40
8.222914e+40
9.134298e+40
9.526715e+40
7.932627e+40
7.593690e+40
6.310351e+40
5.742844e+40
6.194948e+40
6.182263e+40
6.768585e+40
6.581303e+40
3.885794e+40
4.518047e+40
4.431826e+40
4.624451e+40
3.845989e+40
4.352131e+40
4.548134e+40
4.940174e+40
4.251764e+40
3.623673e+40
4.143412e+40
3.829059e+40
3.929583e+40
4.874240e+40
5.462363e+40
5.163884e+40
5.479670e+40
6.570993e+40
6.692303e+40
6.864684e+40
6.240733e+40
7.634772e+40
9.595409e+40
8.731561e+40
8.821352e+40
1.285550e+41
1.169219e+41
1.054402e+41
1.062982e+41
1.025314e+41
1.016295e+41
8.039328e+40
8.095466e+40
8.658450e+40
7.994601e+40
4.816083e+40
8.783713e+40
9.008815e+40
1.072240e+41
1.092630e+41
1.149385e+41
1.404490e+41
1.268801e+41
1.281780e+41
1.307352e+41
1.224820e+41
8.356284e+40
8.164445e+40
6.283211e+40
6.168242e+40
6.005492e+40
4.277941e+40
4.111307e+40
4.520674e+40
5.262807e+40
7.452704e+40
8.694033e+40
8.433036e+40
9.381504e+40
1.061931e+41
1.008860e+41
1.016122e+41
1.220884e+41
1.309797e+41
1.256411e+41
1.013733e+41
9.098278e+40
1.052497e+41
9.511064e+40
8.214566e+40
8.220703e+40
7.326667e+40
5.712771e+40
4.549059e+40
7.332547e+40
7.302518e+40
7.374467e+40
7.049377e+40
7.574905e+40
7.542274e+40
8.234323e+40
8.291793e+40
7.275723e+40
6.676616e+40
4.968120e+40
5.377549e+40
5.013012e+40
3.810507e+40
3.305153e+40
3.659642e+40
3.211886e+40
3.590476e+40
4.266257e+40
5.664197e+40
4.373979e+40
4.884584e+40
4.941728e+40
5.083671e+40
5.822474e+40
1.177409e+41
1.236716e+41
1.268100e+41
1.201551e+41
1.276464e+41
1.254434e+41
1.163930e+41
1.165222e+41
1.227085e+41
1.153625e+41
5.289685e+40
5.722143e+40
6.056214e+40
6.065421e+40
3.433810e+40
5.488484e+40
5.471905e+40
6.725775e+40
5.996951e+40
5.982197e+40
6.726695e+40
6.815152e+40
5.774131e+40
8.732730e+40
8.769474e+40
6.972031e+40
8.685074e+40
8.826402e+40
8.804173e+40
9.689011e+40
1.086935e+41
1.226774e+41
1.365546e+41
1.068914e+41
1.162754e+41
1.132775e+41
1.133255e+41
9.922199e+40
1.079536e+41
9.903904e+40
8.010181e+40
5.878141e+40
7.895450e+40
8.581733e+40
7.701517e+40
7.875328e+40
1.005685e+41
1.001349e+41
1.030219e+41
1.052356e+41
1.127616e+41
1.339035e+41
1.113172e+41
1.184732e+41
1.201910e+41
1.194489e+41
8.522960e+40
8.576584e+40
7.603518e+40
7.449484e+40
7.387299e+40
4.916580e+40
3.794217e+40
5.016697e+40
4.735042e+40
6.860320e+40
6.586697e+40
7.796426e+40
8.071019e+40
9.666315e+40
8.938406e+40
9.248338e+40
1.190642e+41
1.120041e+41
1.163314e+41
9.487865e+40
9.372044e+40
8.950460e+40
8.525065e+40
6.896169e+40
6.847571e+40
6.334516e+40
5.481469e+40
4.107015e+40
6.469921e+40
6.390761e+40
6.435468e+40
6.517619e+40
7.989624e+40
7.970278e+40
8.702929e+40
8.726082e+40
6.866943e+40
7.341334e+40
5.392301e+40
6.284392e+40
6.469036e+40
5.599561e+40
4.060759e+40
5.379314e+40
5.815356e+40
6.851820e+40
6.987744e+40
8.726538e+40
7.882456e+40
7.887275e+40
7.572549e+40
7.519507e+40
8.469544e+40
1.178197e+41
1.091344e+41
1.095101e+41
1.084080e+41
9.885959e+40
1.015760e+41
9.436205e+40
9.614510e+40
1.038373e+41
9.508386e+40
5.046354e+40
5.653271e+40
5.366240e+40
5.383795e+40
3.575530e+40
5.229938e+40
5.055693e+40
6.356686e+40
5.631211e+40
5.563482e+40
6.131884e+40
6.565598e+40
5.729756e+40
8.597068e+40
8.636831e+40
7.005297e+40
8.745201e+40
8.675628e+40
8.641828e+40
9.593650e+40
1.089431e+41
1.229042e+41
1.361866e+41
1.071867e+41
1.160364e+41
1.130144e+41
1.121160e+41
9.892739e+40
1.078821e+41
9.830523e+40
7.861107e+40
5.751860e+40
7.839260e+40
8.464957e+40
7.660285e+40
7.847846e+40
1.024975e+41
1.017251e+41
1.043807e+41
1.064695e+41
1.137154e+41
1.344671e+41
1.123645e+41
1.212148e+41
1.228774e+41
1.221296e+41
8.590997e+40
8.651930e+40
7.680054e+40
7.540646e+40
7.571567e+40
5.119956e+40
3.959939e+40
4.985467e+40
4.685405e+40
6.881958e+40
6.641906e+40
7.817204e+40
8.085192e+40
9.711373e+40
8.938031e+40
9.285320e+40
1.133429e+41
9.636584e+40
1.125362e+41
9.000207e+40
9.240711e+40
8.980963e+40
8.709890e+40
7.288338e+40
7.439642e+40
6.860763e+40
6.303933e+40
5.512704e+40
5.919408e+40
6.017440e+40
5.699413e+40
5.056870e+40
5.319409e+40
5.042211e+40
4.828764e+40
4.826026e+40
3.542673e+40
5.233757e+40
4.538664e+40
6.562871e+40
6.472712e+40
6.198895e+40
5.857093e+40
6.219198e+40
6.706849e+40
7.970410e+40
7.687030e+40
7.405523e+40
6.294836e+40
5.450455e+40
5.426482e+40
5.543740e+40
7.149520e+40
1.015010e+41
9.766443e+40
8.865748e+40
1.000679e+41
1.077975e+41
1.169319e+41
1.145214e+41
1.148521e+41
1.287309e+41
1.408288e+41
1.317772e+41
1.306400e+41
1.352564e+41
1.261275e+41
2.128295e+41
2.130438e+41
2.028952e+41
2.115843e+41
2.018574e+41
2.737364e+41
2.597630e+41
2.733305e+41
2.838337e+41
3.426731e+41
2.912783e+41
2.873106e+41
2.923064e+41
2.907294e+41
2.935908e+41
2.368148e+41
2.395428e+41
2.508761e+41
2.352032e+41
1.810360e+41
1.828790e+41
1.852431e+41
1.804079e+41
2.158339e+41
2.164916e+41
2.517549e+41
2.485590e+41
2.301679e+41
2.361457e+41
2.433855e+41
1.837446e+41
1.756551e+41
2.061425e+41
2.021098e+41
1.959307e+41
1.179304e+41
1.311245e+41
1.693955e+41
1.675125e+41
1.563921e+41
1.622373e+41
1.652220e+41
2.236968e+41
2.028569e+41
1.999403e+41
2.172339e+41
1.939065e+41
2.288218e+41
2.321007e+41
2.419412e+41
2.721889e+41
3.085459e+41
2.963777e+41
2.829471e+41
2.827919e+41
2.742915e+41
2.760567e+41
2.668946e+41
2.658681e+41
2.577689e+41
2.291394e+41
2.051430e+41
1.829708e+41
1.906396e+41
1.902866e+41
1.956433e+41
2.015368e+41
2.315116e+41
2.307745e+41
2.257882e+41
2.217847e+41
2.071239e+41
2.371214e+41
2.270632e+41
2.279821e+41
2.660342e+41
2.984448e+41
2.753034e+41
2.810572e+41
2.822337e+41
3.048830e+41
3.379887e+41
2.526222e+41
2.513952e+41
3.640363e+41
3.334071e+41
2.933489e+41
2.470964e+41
2.460484e+41
3.125895e+41
3.009454e+41
2.687745e+41
2.889636e+41
3.116624e+41
2.533195e+41
2.309582e+41
2.340262e+41
2.262724e+41
2.126818e+41
2.175354e+41
2.151417e+41
2.117525e+41
1.963857e+41
1.952992e+41
1.825968e+41
1.933025e+41
1.914143e+41
1.763075e+41
1.807593e+41
2.061776e+41
2.076746e+41
2.080750e+41
2.096158e+41
1.918483e+41
2.504117e+41
2.513276e+41
2.594606e+41
2.750488e+41
3.366991e+41
2.986314e+41
2.897000e+41
2.991496e+41
2.962994e+41
2.969617e+41
2.431108e+41
2.455532e+41
2.559382e+41
2.416251e+41
1.820512e+41
1.547041e+41
1.615772e+41
1.516190e+41
2.177893e+41
2.300344e+41
1.832770e+41
1.696577e+41
2.271058e+41
2.195578e+41
2.132752e+41
1.916512e+41
1.952643e+41
2.725337e+41
2.253653e+41
2.087519e+41
2.164262e+41
2.526814e+41
2.149996e+41
2.325905e+41
2.522256e+41
2.425941e+41
2.292644e+41
2.705888e+41
2.557554e+41
2.548147e+41
2.788454e+41
2.455912e+41
2.545924e+41
2.539021e+41
2.481195e+41
2.711393e+41
2.958848e+41
2.741993e+41
2.697283e+41
2.699530e+41
2.628541e+41
2.592477e+41
2.681633e+41
2.649670e+41
2.551000e+41
2.310565e+41
2.201731e+41
1.954951e+41
1.977626e+41
1.973958e+41
1.952917e+41
2.072601e+41
2.379642e+41
2.339624e+41
2.298471e+41
2.363145e+41
2.261194e+41
2.321528e+41
2.296784e+41
2.366216e+41
2.966782e+41
2.865524e+41
2.012149e+41
1.917406e+41
2.334978e+41
2.457355e+41
2.401855e+41
1.685491e+41
1.662032e+41
2.992805e+41
2.286950e+41
2.264439e+41
2.633962e+41
2.792916e+41
2.754773e+41
2.807831e+41
2.891864e+41
2.874865e+41
2.928950e+41
2.339075e+41
2.233616e+41
2.238878e+41
2.244491e+41
2.102930e+41
2.209575e+41
2.199506e+41
2.124117e+41
2.113225e+41
2.193153e+41
2.092897e+41
2.102303e+41
2.113506e+41
1.801865e+41
2.018278e+41
2.421915e+41
2.347634e+41
2.378012e+41
2.456648e+41
2.336504e+41
2.967012e+41
2.944984e+41
3.078836e+41
3.236283e+41
3.563469e+41
3.021384e+41
2.876570e+41
2.863616e+41
2.952012e+41
3.069046e+41
2.189085e+41
2.278284e+41
2.237963e+41
2.094362e+41
1.727015e+41
1.413498e+41
1.407139e+41
2.000227e+41
1.986926e+41
1.847823e+41
1.434945e+41
1.518286e+41
1.646742e+41
1.548058e+41
1.353917e+41
1.541516e+41
1.919393e+41
1.857441e+41
1.737230e+41
1.894031e+41
1.853349e+41
1.729357e+41
2.253758e+41
2.428676e+41
2.477286e+41
2.414255e+41
2.229671e+41
2.362427e+41
2.506895e+41
2.371107e+41
2.700150e+41
2.680972e+41
2.699089e+41
2.594943e+41
2.713037e+41
2.600534e+41
2.425566e+41
2.255686e+41
2.067313e+41
2.046311e+41
1.918975e+41
1.922694e+41
1.397614e+41
1.638000e+41
1.509525e+41
1.467050e+41
1.474569e+41
1.646651e+41
1.749623e+41
1.755367e+41
1.812208e+41
1.909064e+41
2.578192e+41
2.348590e+41
2.291342e+41
2.475732e+41
2.684478e+41
1.992300e+41
1.867279e+41
2.472925e+41
2.834201e+41
2.707075e+41
1.780659e+41
1.702489e+41
2.469301e+41
2.347719e+41
2.107527e+41
2.414110e+41
2.646063e+41
2.793170e+41
2.384254e+41
2.418951e+41
2.513470e+41
2.505627e+41
2.670503e+41
2.678641e+41
2.799024e+41
2.582483e+41
2.530569e+41
2.238154e+41
2.023936e+41
1.983629e+41
2.428029e+41
2.487484e+41
2.028127e+41
2.154947e+41
2.052253e+41
1.980151e+41
1.887040e+41
2.366239e+41
2.416286e+41
2.604240e+41
2.163875e+41
2.234339e+41
2.242721e+41
2.146061e+41
2.126637e+41
2.418444e+41
2.371122e+41
2.212026e+41
2.257322e+41
2.222447e+41
2.232181e+41
2.490627e+41
2.405001e+41
2.323942e+41
2.345748e+41
2.457797e+41
2.608318e+41
1.823857e+41
1.728940e+41
2.411791e+41
2.375990e+41
1.986304e+41
2.022191e+41
2.060112e+41
2.857972e+41
2.494247e+41
2.315108e+41
2.377609e+41
2.657093e+41
1.995246e+41
1.921421e+41
1.999676e+41
1.645416e+41
1.800438e+41
1.635599e+41
1.676782e+41
1.720504e+41
1.665793e+41
1.544819e+41
1.970644e+41
2.154671e+41
2.184661e+41
2.185350e+41
2.068145e+41
2.343621e+41
2.508173e+41
2.447674e+41
2.860032e+41
2.810173e+41
2.843305e+41
2.736349e+41
2.843446e+41
2.804436e+41
2.725991e+41
2.354095e+41
2.107978e+41
2.108215e+41
1.866611e+41
1.798830e+41
1.376728e+41
1.715778e+41
1.524289e+41
1.483325e+41
1.506359e+41
1.677849e+41
1.742236e+41
1.742061e+41
1.726832e+41
1.754141e+41
2.584873e+41
2.241316e+41
2.217490e+41
2.468366e+41
2.586783e+41
1.867048e+41
1.816725e+41
2.317436e+41
2.865160e+41
2.805239e+41
1.762343e+41
1.686838e+41
2.263697e+41
2.028285e+41
1.895868e+41
1.980749e+41
2.387318e+41
2.936224e+41
2.277677e+41
2.294209e+41
2.315059e+41
2.378259e+41
3.029373e+41
3.369271e+41
3.402609e+41
3.473321e+41
3.078550e+41
2.278870e+41
2.234363e+41
2.208353e+41
2.293966e+41
2.718283e+41
2.421939e+41
2.559078e+41
2.657261e+41
2.516078e+41
2.490974e+41
2.979305e+41
3.031417e+41
3.171398e+41
3.942967e+41
3.548136e+41
2.896234e+41
2.404369e+41
2.282337e+41
2.394029e+41
2.561906e+41
3.223678e+41
3.322727e+41
3.824467e+41
3.300860e+41
3.283609e+41
3.205729e+41
3.209994e+41
3.216052e+41
3.312209e+41
3.205865e+41
1.863331e+41
1.777986e+41
2.281250e+41
2.268525e+41
2.194039e+41
2.241984e+41
2.587893e+41
4.000254e+41
3.838575e+41
3.951842e+41
4.173629e+41
4.301128e+41
3.164801e+41
2.847777e+41
2.888284e+41
2.644332e+41
2.532268e+41
2.351014e+41
2.664997e+41
2.583157e+41
2.444129e+41
2.251404e+41
2.506069e+41
2.487260e+41
2.446824e+41
2.596267e+41
2.430990e+41
1.489479e+41
1.159108e+41
1.050979e+41
1.010305e+41
1.318703e+41
2.007724e+41
2.235179e+41
2.845574e+41
2.733457e+41
2.662782e+41
2.769175e+41
2.724519e+41
2.880571e+41
2.989930e+41
2.992634e+41
2.476888e+41
2.923587e+41
2.462880e+41
2.473096e+41
2.497964e+41
3.066996e+41
3.446761e+41
3.438115e+41
3.593117e+41
3.990269e+41
3.551097e+41
2.868723e+41
2.791480e+41
2.781696e+41
2.772612e+41
1.775806e+41
1.732108e+41
2.907668e+41
3.322530e+41
2.605440e+41
3.085454e+41
3.102311e+41
3.465847e+41
3.422229e+41
3.449613e+41
3.485360e+41
3.236340e+41
3.114974e+41
2.344046e+41
2.497468e+41
2.202956e+41
2.276264e+41
3.392333e+41
3.621598e+41
3.633702e+41
3.882685e+41
3.933322e+41
2.888317e+41
2.889790e+41
2.735328e+41
2.597593e+41
2.905936e+41
2.292480e+41
2.625983e+41
2.671258e+41
2.416643e+41
2.287462e+41
2.982306e+41
2.986286e+41
3.263972e+41
3.866202e+41
3.518137e+41
2.850263e+41
2.300242e+41
2.319649e+41
2.588426e+41
2.944257e+41
3.180071e+41
3.393613e+41
3.831613e+41
3.741084e+41
4.012559e+41
3.807418e+41
3.831673e+41
3.894371e+41
3.680957e+41
3.308074e+41
2.228756e+41
2.139051e+41
2.835012e+41
2.470832e+41
2.149743e+41
2.524992e+41
3.150920e+41
4.061375e+41
4.034272e+41
4.388857e+41
4.464251e+41
4.375902e+41
3.021695e+41
2.851236e+41
2.857148e+41
2.473352e+41
2.430614e+41
2.582195e+41
2.989337e+41
2.722314e+41
2.708323e+41
2.666678e+41
3.103658e+41
3.078694e+41
3.074451e+41
3.197351e+41
2.684079e+41
1.715448e+41
1.308274e+41
1.228969e+41
1.282653e+41
1.636002e+41
2.007269e+41
2.280336e+41
2.842716e+41
2.716139e+41
2.611254e+41
2.788921e+41
2.717478e+41
2.737352e+41
2.993379e+41
3.026926e+41
3.328577e+41
3.607507e+41
3.129370e+41
3.319708e+41
3.726478e+41
3.372184e+41
3.772089e+41
4.722837e+41
4.893190e+41
4.529744e+41
3.639017e+41
3.089214e+41
3.338633e+41
3.102407e+41
2.714732e+41
2.667606e+41
2.946875e+41
3.176381e+41
3.080351e+41
3.203165e+41
3.058679e+41
3.177388e+41
3.383667e+41
3.384486e+41
3.363706e+41
3.535257e+41
3.207460e+41
2.710861e+41
2.337071e+41
2.435845e+41
2.499083e+41
2.435301e+41
3.760661e+41
3.855722e+41
4.008670e+41
3.950815e+41
3.668484e+41
3.186384e+41
3.130306e+41
2.882307e+41
2.723640e+41
3.049759e+41
2.081720e+41
2.615908e+41
2.522511e+41
2.462203e+41
2.390943e+41
2.767643e+41
2.810722e+41
2.979052e+41
3.710061e+41
3.380743e+41
2.820322e+41
2.181629e+41
2.147159e+41
2.400742e+41
2.477698e+41
1.978436e+41
1.969066e+41
3.815853e+41
3.495908e+41
3.468163e+41
3.602491e+41
3.603354e+41
3.812421e+41
3.505362e+41
3.434939e+41
3.421814e+41
3.748805e+41
2.783929e+41
2.529517e+41
2.549852e+41
2.213936e+41
2.470354e+41
3.877833e+41
3.853464e+41
4.216307e+41
4.359401e+41
4.064246e+41
3.103457e+41
2.963632e+41
2.922633e+41
2.785634e+41
3.018556e+41
2.431651e+41
3.106099e+41
2.772762e+41
2.627694e+41
2.543783e+41
2.932768e+41
2.878517e+41
2.874484e+41
3.041520e+41
2.587178e+41
1.794942e+41
1.095741e+41
1.060310e+41
1.116482e+41
1.486180e+41
1.863259e+41
2.156739e+41
2.351790e+41
2.241533e+41
2.226312e+41
2.202321e+41
2.198742e+41
2.198399e+41
2.451443e+41
2.084327e+41
1.301710e+41
1.470680e+41
2.075988e+41
2.340723e+41
2.404767e+41
2.171617e+41
2.363139e+41
3.929738e+41
3.983762e+41
3.975741e+41
4.354307e+41
3.945409e+41
3.558543e+41
3.237501e+41
3.287571e+41
3.364813e+41
3.845224e+41
3.596756e+41
3.424113e+41
3.549456e+41
3.460472e+41
3.412451e+41
3.425770e+41
3.432224e+41
3.365158e+41
3.399777e+41
2.896854e+41
2.021438e+41
1.885928e+41
2.005350e+41
1.695632e+41
1.707203e+41
2.934860e+41
3.127826e+41
3.216655e+41
3.273865e+41
3.117898e+41
2.901718e+41
2.784682e+41
2.594260e+41
2.685979e+41
3.089036e+41
2.798542e+41
3.027463e+41
2.921237e+41
2.902438e+41
2.887935e+41
3.297724e+41
3.276218e+41
3.420223e+41
4.397512e+41
4.020367e+41
2.837808e+41
2.430970e+41
2.789153e+41
2.738797e+41
2.741153e+41
2.111228e+41
2.188006e+41
4.433831e+41
3.468529e+41
3.439679e+41
4.017516e+41
4.283796e+41
3.896291e+41
3.842399e+41
3.970716e+41
3.999026e+41
3.994180e+41
2.692866e+41
2.534949e+41
2.628414e+41
2.007675e+41
1.898270e+41
2.701181e+41
2.958716e+41
2.845406e+41
3.093675e+41
3.012040e+41
2.614376e+41
2.619570e+41
2.561448e+41
2.491827e+41
3.187972e+41
3.204756e+41
3.317289e+41
3.430204e+41
3.253251e+41
3.255191e+41
2.804255e+41
2.803736e+41
2.842411e+41
2.793445e+41
1.941197e+41
1.247116e+41
8.274623e+40
7.231073e+40
7.743120e+40
1.289571e+41
1.852218e+41
2.487106e+41
2.535038e+41
2.662601e+41
3.470319e+41
3.336169e+41
3.401954e+41
3.699078e+41
3.784018e+41
3.284228e+41
2.424325e+41
2.407105e+41
3.078171e+41
3.309688e+41
2.493146e+41
2.505634e+41
2.838714e+41
4.023767e+41
4.034593e+41
4.147888e+41
4.258540e+41
3.633215e+41
3.355796e+41
2.989239e+41
2.997528e+41
3.267789e+41
3.922930e+41
3.476098e+41
3.501255e+41
3.581819e+41
3.680398e+41
3.732944e+41
3.772299e+41
3.761925e+41
3.785261e+41
3.693185e+41
2.925949e+41
2.183877e+41
2.105712e+41
2.136315e+41
1.957619e+41
1.905615e+41
3.341887e+41
3.452941e+41
3.623364e+41
3.579936e+41
3.320187e+41
3.145516e+41
2.948726e+41
2.845279e+41
3.057807e+41
3.568045e+41
2.887540e+41
3.141694e+41
3.042193e+41
3.141366e+41
3.866091e+41
3.721722e+41
3.726400e+41
4.614394e+41
5.340775e+41
4.892908e+41
3.957105e+41
3.640704e+41
4.145347e+41
3.887174e+41
3.132889e+41
3.222268e+41
3.544961e+41
4.588297e+41
3.713738e+41
3.843522e+41
4.059395e+41
4.009490e+41
3.430396e+41
3.552735e+41
3.556884e+41
3.560016e+41
3.370330e+41
2.000149e+41
1.915061e+41
1.845474e+41
1.315247e+41
1.574175e+41
2.843247e+41
3.032529e+41
3.030020e+41
3.229512e+41
3.092409e+41
3.284427e+41
3.280912e+41
3.196400e+41
3.196540e+41
3.753853e+41
3.426974e+41
3.429157e+41
3.591653e+41
3.415531e+41
3.413413e+41
2.687697e+41
2.736362e+41
2.725469e+41
2.700083e+41
1.905679e+41
1.108199e+41
7.958420e+40
6.330517e+40
5.948846e+40
9.714490e+40
1.794786e+41
2.331449e+41
2.440548e+41
2.571555e+41
3.273655e+41
3.117822e+41
3.149018e+41
3.394412e+41
3.620872e+41
3.274547e+41
2.285637e+41
2.330252e+41
3.032336e+41
3.188320e+41
2.493214e+41
2.470738e+41
2.763544e+41
4.162989e+41
4.074076e+41
4.200867e+41
4.303549e+41
3.667324e+41
3.302717e+41
2.995030e+41
2.972285e+41
3.319295e+41
4.156884e+41
3.491876e+41
3.581813e+41
3.624350e+41
3.708995e+41
3.779229e+41
3.940806e+41
3.912115e+41
3.941308e+41
3.628125e+41
3.029742e+41
2.428089e+41
2.209361e+41
2.241106e+41
2.144130e+41
2.093646e+41
3.355960e+41
3.453459e+41
3.661689e+41
3.780735e+41
3.262691e+41
2.988783e+41
2.901662e+41
2.802737e+41
2.907895e+41
3.299397e+41
2.939308e+41
3.149069e+41
3.071114e+41
3.376610e+41
4.354190e+41
4.250059e+41
4.252877e+41
5.066479e+41
5.725719e+41
5.331422e+41
4.381699e+41
4.079743e+41
4.422593e+41
3.983389e+41
2.959336e+41
3.003145e+41
3.189180e+41
3.945619e+41
3.120087e+41
3.227505e+41
3.473226e+41
3.469478e+41
3.089062e+41
3.102869e+41
3.114322e+41
3.129442e+41
3.170719e+41
2.018021e+41
2.009978e+41
2.017037e+41
1.251894e+41
1.499133e+41
2.687927e+41
2.941203e+41
2.931904e+41
3.144791e+41
2.921891e+41
3.327825e+41
3.308137e+41
3.227366e+41
3.229611e+41
3.828082e+41
3.424611e+41
3.501561e+41
3.636766e+41
3.501476e+41
3.497728e+41
2.700744e+41
2.747836e+41
2.734343e+41
2.697675e+41
1.866078e+41
1.157520e+41
7.882177e+40
6.502680e+40
7.772200e+40
7.791621e+40
6.281877e+40
1.047539e+41
1.780769e+41
1.865044e+41
2.131647e+41
2.145169e+41
2.181198e+41
2.636741e+41
2.379849e+41
2.480457e+41
2.478893e+41
2.750698e+41
2.537102e+41
2.966733e+41
2.706889e+41
2.489413e+41
2.563276e+41
4.213068e+41
4.397313e+41
4.361912e+41
4.620554e+41
3.909022e+41
3.718649e+41
3.191043e+41
3.216545e+41
3.409308e+41
4.165355e+41
3.223225e+41
3.338638e+41
3.409359e+41
3.463399e+41
3.453004e+41
3.579117e+41
3.561430e+41
3.553350e+41
3.377776e+41
2.955982e+41
2.308071e+41
2.042166e+41
2.091891e+41
1.827468e+41
1.919105e+41
3.696910e+41
3.856642e+41
3.915332e+41
4.127744e+41
3.713954e+41
3.381331e+41
3.349903e+41
3.179967e+41
3.608430e+41
3.498480e+41
1.390434e+41
1.318490e+41
2.322017e+41
2.442732e+41
2.746902e+41
2.786834e+41
2.809982e+41
4.314547e+41
4.555736e+41
4.620990e+41
5.186981e+41
5.265630e+41
4.437562e+41
4.098900e+41
3.782149e+41
3.560809e+41
3.624575e+41
3.904600e+41
3.212970e+41
3.231939e+41
3.424698e+41
3.340599e+41
3.216788e+41
3.222042e+41
3.237155e+41
3.296219e+41
3.203383e+41
1.935246e+41
1.905494e+41
2.033866e+41
1.138887e+41
1.215586e+41
1.490336e+41
1.650221e+41
1.800847e+41
2.497821e+41
2.516458e+41
3.308701e+41
3.404319e+41
3.264065e+41
3.282891e+41
3.458353e+41
4.011068e+41
4.750483e+41
4.685757e+41
3.983992e+41
4.235458e+41
3.139363e+41
3.043603e+41
2.995108e+41
3.029653e+41
3.566572e+41
2.834167e+41
2.037770e+41
2.268326e+41
2.245160e+41
2.096530e+41
2.341560e+41
2.978241e+41
4.405287e+41
4.615510e+41
4.296057e+41
4.101991e+41
4.103804e+41
4.156464e+41
4.152532e+41
4.175976e+41
3.739235e+41
3.489007e+41
3.310502e+41
3.653867e+41
3.223612e+41
3.184573e+41
3.140263e+41
3.715121e+41
3.771224e+41
4.046212e+41
4.701999e+41
4.311800e+41
3.842497e+41
3.331070e+41
3.267241e+41
3.501071e+41
3.996799e+41
3.997992e+41
4.783686e+41
4.561060e+41
3.922138e+41
3.931262e+41
4.119170e+41
4.143331e+41
4.106705e+41
3.875122e+41
3.596843e+41
2.725560e+41
1.949839e+41
2.070550e+41
2.031676e+41
2.093018e+41
2.025509e+41
1.949572e+41
2.641373e+41
3.355250e+41
3.729319e+41
3.624928e+41
3.559885e+41
3.329943e+41
3.450821e+41
3.697947e+41
2.774499e+41
3.051723e+41
3.834461e+41
3.223396e+41
2.570848e+41
2.733865e+41
2.713590e+41
3.338838e+41
3.662407e+41
3.776166e+41
4.531831e+41
4.260016e+41
3.630259e+41
3.575907e+41
3.559372e+41
3.520566e+41
3.714991e+41
4.588803e+41
4.727168e+41
4.513355e+41
3.993612e+41
4.015959e+41
3.384213e+41
3.321358e+41
3.344816e+41
3.293849e+41
3.303959e+41
2.806117e+41
2.219221e+41
2.484179e+41
2.290554e+41
2.268952e+41
2.622108e+41
2.786996e+41
2.902108e+41
3.654434e+41
3.481358e+41
3.783096e+41
3.768337e+41
3.285865e+41
3.321600e+41
3.594234e+41
3.716933e+41
4.944994e+41
4.870311e+41
4.201171e+41
4.321713e+41
2.937743e+41
3.100233e+41
3.322914e+41
3.287051e+41
3.187643e+41
3.348803e+41
1.999190e+41
2.425859e+41
2.264560e+41
2.215061e+41
2.901130e+41
3.728500e+41
4.662418e+41
4.894497e+41
5.497113e+41
4.623477e+41
4.588002e+41
4.754165e+41
4.794069e+41
4.928346e+41
4.230991e+41
3.954190e+41
3.720091e+41
4.216746e+41
3.491009e+41
3.491546e+41
3.520717e+41
4.050768e+41
4.056289e+41
4.273717e+41
5.005159e+41
4.295016e+41
4.071691e+41
3.448119e+41
3.381674e+41
3.605457e+41
4.070599e+41
3.959782e+41
4.683967e+41
4.461341e+41
3.785090e+41
3.798165e+41
3.980051e+41
3.918923e+41
3.915803e+41
3.724347e+41
3.570537e+41
2.597447e+41
1.911973e+41
1.899759e+41
1.926989e+41
2.191912e+41
1.336981e+41
1.258594e+41
3.144115e+41
3.697378e+41
3.557125e+41
3.588480e+41
3.710269e+41
3.964756e+41
3.934900e+41
4.106947e+41
4.108408e+41
4.607070e+41
4.006202e+41
3.549175e+41
3.388680e+41
3.309285e+41
3.195938e+41
3.780287e+41
4.090581e+41
4.037834e+41
5.173489e+41
4.691579e+41
3.392087e+41
3.264987e+41
3.235862e+41
3.421971e+41
3.549139e+41
4.497545e+41
4.471152e+41
4.352954e+41
3.505037e+41
3.701401e+41
3.773787e+41
3.774919e+41
3.773289e+41
3.671781e+41
3.556024e+41
2.925525e+41
2.590803e+41
2.745335e+41
2.485676e+41
2.376953e+41
2.739270e+41
2.983936e+41
3.044570e+41
3.880645e+41
3.794523e+41
3.750812e+41
3.749187e+41
3.322472e+41
3.448568e+41
3.378188e+41
2.907217e+41
3.605079e+41
4.247918e+41
3.357013e+41
3.341706e+41
2.231543e+41
2.326097e+41
2.682887e+41
2.503571e+41
2.722307e+41
3.928574e+41
2.981992e+41
2.575592e+41
2.487882e+41
2.513972e+41
2.609541e+41
3.078465e+41
4.248285e+41
4.483632e+41
4.904573e+41
3.712877e+41
3.799047e+41
3.919537e+41
3.935766e+41
4.149045e+41
3.827541e+41
3.826950e+41
3.369172e+41
3.798465e+41
3.224748e+41
3.207734e+41
3.171994e+41
3.824447e+41
3.863901e+41
4.097746e+41
4.770503e+41
4.207841e+41
3.917030e+41
3.376556e+41
3.334901e+41
3.570008e+41
4.094999e+41
3.951308e+41
4.831297e+41
4.532229e+41
3.929786e+41
3.949263e+41
4.082561e+41
4.082559e+41
4.044052e+41
3.808873e+41
3.587211e+41
2.913951e+41
2.049390e+41
2.193533e+41
2.233944e+41
2.475008e+41
1.565756e+41
1.475333e+41
3.065778e+41
3.837373e+41
3.651114e+41
3.501557e+41
3.588582e+41
4.067750e+41
4.148365e+41
3.931991e+41
3.938391e+41
4.684397e+41
4.379070e+41
3.647932e+41
3.586480e+41
3.540747e+41
3.405390e+41
3.321514e+41
3.651215e+41
3.946085e+41
5.045081e+41
4.275162e+41
3.013861e+41
2.972817e+41
2.884045e+41
3.049827e+41
3.199919e+41
4.785216e+41
4.477554e+41
4.549417e+41
3.684241e+41
3.878969e+41
3.916233e+41
3.938510e+41
3.987542e+41
3.812684e+41
3.827878e+41
2.776327e+41
2.559891e+41
2.546853e+41
2.322454e+41
2.186349e+41
2.687995e+41
2.846669e+41
2.885729e+41
3.768710e+41
3.599328e+41
3.631894e+41
3.631023e+41
3.240533e+41
3.411069e+41
3.377292e+41
2.789764e+41
3.564158e+41
4.179075e+41
3.322134e+41
3.304705e+41
2.268448e+41
2.344129e+41
2.684100e+41
2.488107e+41
2.708790e+41
3.886353e+41
2.928703e+41
2.562708e+41
2.472181e+41
2.486248e+41
2.528384e+41
2.969513e+41
4.167094e+41
4.405332e+41
4.801969e+41
3.653516e+41
3.767550e+41
3.769026e+41
3.774151e+41
4.035283e+41
3.749207e+41
3.812281e+41
3.374357e+41
3.771868e+41
3.198803e+41
3.166775e+41
3.082868e+41
3.923193e+41
3.960717e+41
4.194638e+41
4.868050e+41
4.290999e+41
3.493771e+41
2.854414e+41
2.796347e+41
3.372660e+41
4.038734e+41
3.998367e+41
4.690537e+41
4.343425e+41
3.803002e+41
3.847518e+41
4.456103e+41
4.648506e+41
4.624477e+41
4.104466e+41
3.527501e+41
2.710161e+41
2.011078e+41
1.847878e+41
1.802564e+41
1.759744e+41
9.006292e+40
7.365515e+40
3.249718e+41
3.503934e+41
3.625728e+41
3.558573e+41
4.018901e+41
4.409463e+41
4.604559e+41
4.611092e+41
4.562437e+41
4.901487e+41
4.191222e+41
3.904446e+41
3.727216e+41
3.654449e+41
3.157968e+41
3.280411e+41
3.606478e+41
3.971144e+41
4.921752e+41
4.554142e+41
2.855259e+41
2.840131e+41
2.788790e+41
2.895206e+41
3.160745e+41
4.695832e+41
4.354645e+41
4.372155e+41
3.625501e+41
3.778204e+41
3.830429e+41
3.824869e+41
3.845753e+41
3.622199e+41
3.552015e+41
2.617712e+41
2.364801e+41
2.486422e+41
2.337859e+41
2.292263e+41
2.666515e+41
2.839083e+41
2.968202e+41
4.179802e+41
4.821394e+41
3.817542e+41
3.812724e+41
3.711774e+41
3.769310e+41
3.687313e+41
3.241255e+41
4.174284e+41
5.064408e+41
3.779816e+41
2.952396e+41
3.220061e+41
3.214499e+41
2.984269e+41
2.865982e+41
3.251725e+41
3.939984e+41
2.873640e+41
2.307291e+41
2.299562e+41
2.344605e+41
2.473059e+41
3.275236e+41
4.355941e+41
4.640869e+41
4.963021e+41
4.194991e+41
4.203223e+41
4.386699e+41
4.440177e+41
4.389149e+41
3.956169e+41
4.178488e+41
4.101942e+41
4.283861e+41
3.633723e+41
3.634948e+41
3.641192e+41
4.175522e+41
4.138092e+41
4.776133e+41
5.281316e+41
4.254088e+41
3.293622e+41
2.824722e+41
2.763044e+41
3.094189e+41
3.792710e+41
3.554401e+41
4.166290e+41
3.928391e+41
3.534587e+41
3.837918e+41
3.611700e+41
3.832452e+41
4.023711e+41
3.719033e+41
2.963786e+41
2.824471e+41
2.256448e+41
1.881236e+41
1.712873e+41
1.414919e+41
1.544987e+41
1.431958e+41
3.445584e+41
3.671909e+41
4.144488e+41
3.391238e+41
3.557171e+41
4.088701e+41
4.384648e+41
4.440024e+41
4.320366e+41
4.871365e+41
4.084278e+41
3.871113e+41
3.471760e+41
3.529840e+41
3.307331e+41
3.391807e+41
3.610430e+41
3.926201e+41
4.928402e+41
4.269392e+41
2.914933e+41
2.878756e+41
2.828072e+41
2.934446e+41
3.112200e+41
4.730904e+41
4.413207e+41
4.452672e+41
3.689019e+41
3.912267e+41
3.899667e+41
3.930103e+41
3.998562e+41
3.800987e+41
3.857866e+41
2.743082e+41
2.534953e+41
2.438281e+41
2.299957e+41
2.353108e+41
2.283213e+41
2.244812e+41
2.154077e+41
2.383473e+41
2.357189e+41
1.477683e+41
1.839173e+41
1.681071e+41
2.744154e+41
4.425505e+41
5.374163e+41
5.678074e+41
5.864864e+41
8.130329e+41
8.694806e+41
9.362080e+41
9.981782e+41
9.833737e+41
1.154278e+42
1.054102e+42
1.143065e+42
1.150267e+42
1.132074e+42
1.149705e+42
1.233521e+42
1.287609e+42
1.195119e+42
1.225946e+42
1.040261e+42
9.624617e+41
8.326239e+41
8.177851e+41
8.398005e+41
8.080700e+41
7.619490e+41
7.007379e+41
7.087868e+41
7.210123e+41
7.232748e+41
9.168376e+41
9.212205e+41
9.104453e+41
9.226279e+41
8.983853e+41
8.072375e+41
9.572277e+41
9.810065e+41
9.362803e+41
1.115216e+42
1.057635e+42
1.127667e+42
1.117415e+42
1.124151e+42
1.004143e+42
1.011303e+42
8.562468e+41
8.334399e+41
8.475449e+41
9.470008e+41
9.790894e+41
9.113648e+41
9.135259e+41
8.755065e+41
9.709086e+41
1.241051e+42
1.229877e+42
1.224990e+42
1.238391e+42
1.078699e+42
9.001399e+41
9.901254e+41
1.039857e+42
1.049882e+42
9.805867e+41
8.192595e+41
9.048229e+41
9.282694e+41
1.339808e+42
1.181625e+42
1.189558e+42
1.042668e+42
9.900800e+41
1.101987e+42
1.019134e+42
9.565011e+41
8.018507e+41
8.619605e+41
4.727454e+41
4.854703e+41
7.735032e+41
8.061362e+41
8.199179e+41
8.788653e+41
9.386339e+41
8.681343e+41
8.695768e+41
8.419657e+41
9.188965e+41
1.011436e+42
1.006225e+42
9.822928e+41
9.677755e+41
1.200217e+42
1.208245e+42
1.243912e+42
1.283925e+42
1.229194e+42
1.363172e+42
1.282269e+42
1.113846e+42
1.102814e+42
1.127961e+42
7.644858e+41
6.790315e+41
7.400569e+41
7.750243e+41
7.828490e+41
6.316317e+41
6.908520e+41
6.075234e+41
6.208603e+41
6.080002e+41
7.368232e+41
8.523266e+41
8.815630e+41
8.934295e+41
8.775963e+41
1.093629e+42
1.024070e+42
1.143471e+42
1.171991e+42
1.159445e+42
1.257260e+42
1.271896e+42
1.279080e+42
1.194350e+42
1.223914e+42
9.930380e+41
9.382148e+41
8.435786e+41
8.144931e+41
8.305628e+41
7.788581e+41
7.427950e+41
6.809199e+41
6.816817e+41
6.809958e+41
7.761225e+41
9.503875e+41
9.543281e+41
9.500653e+41
9.767479e+41
9.751899e+41
8.912768e+41
1.095170e+42
1.113103e+42
1.081008e+42
1.177446e+42
1.117265e+42
1.155835e+42
1.146438e+42
1.145363e+42
1.012304e+42
1.013383e+42
8.116773e+41
8.049217e+41
8.223776e+41
9.340685e+41
9.712257e+41
9.149836e+41
9.177561e+41
8.806622e+41
9.607608e+41
1.249409e+42
1.246034e+42
1.237948e+42
1.246359e+42
1.075297e+42
9.062949e+41
9.791932e+41
9.845597e+41
1.302542e+42
1.169110e+42
9.422356e+41
8.689310e+41
8.758200e+41
1.060762e+42
1.031703e+42
1.039889e+42
9.542501e+41
9.839139e+41
8.315257e+41
8.623039e+41
9.426578e+41
9.474692e+41
9.980569e+41
8.577898e+41
7.023278e+41
8.387299e+41
8.236892e+41
8.018252e+41
8.118193e+41
8.858492e+41
7.449679e+41
7.363818e+41
7.422117e+41
8.596364e+41
9.159546e+41
9.497713e+41
9.228273e+41
9.137845e+41
1.065846e+42
1.141030e+42
1.193092e+42
1.228603e+42
1.167432e+42
1.226925e+42
1.226741e+42
1.164846e+42
1.169231e+42
1.216429e+42
9.834854e+41
7.701019e+41
7.725938e+41
8.061036e+41
8.028798e+41
6.247461e+41
7.340041e+41
6.806826e+41
6.944306e+41
6.524577e+41
7.506529e+41
8.576379e+41
8.809630e+41
9.216091e+41
9.213507e+41
1.195112e+42
1.063036e+42
1.163869e+42
1.182351e+42
1.170145e+42
1.235192e+42
1.287521e+42
1.328101e+42
1.225446e+42
1.249331e+42
1.002976e+42
9.494171e+41
8.414988e+41
8.201366e+41
8.409309e+41
8.241998e+41
7.651950e+41
6.911743e+41
6.905351e+41
6.856220e+41
7.611572e+41
9.578502e+41
9.829125e+41
9.718115e+41
9.881018e+41
9.694810e+41
8.887877e+41
1.071369e+42
1.096737e+42
1.070637e+42
1.210285e+42
1.115058e+42
1.131807e+42
1.125425e+42
1.125594e+42
9.774543e+41
9.938153e+41
8.317920e+41
8.099235e+41
8.210040e+41
8.866232e+41
9.469290e+41
8.955018e+41
8.980379e+41
8.605307e+41
9.185913e+41
1.152717e+42
1.094198e+42
1.100548e+42
1.111260e+42
9.373639e+41
7.618803e+41
8.395806e+41
8.444020e+41
1.141758e+42
1.063924e+42
9.125955e+41
8.839952e+41
8.884852e+41
1.083247e+42
1.056269e+42
1.056108e+42
9.864150e+41
1.028451e+42
9.211824e+41
9.233000e+41
9.657435e+41
9.573838e+41
9.631694e+41
8.952363e+41
7.683922e+41
9.826511e+41
9.405147e+41
9.120350e+41
9.074265e+41
1.014619e+42
9.032428e+41
9.038397e+41
9.412914e+41
9.986419e+41
1.018242e+42
9.347802e+41
9.252425e+41
9.159906e+41
1.073292e+42
1.128676e+42
1.158864e+42
1.191303e+42
1.138162e+42
1.178094e+42
1.215385e+42
1.213496e+42
1.207190e+42
1.235914e+42
9.727298e+41
7.597517e+41
7.692094e+41
8.047837e+41
8.054046e+41
6.449315e+41
7.148552e+41
6.329020e+41
6.431395e+41
6.197859e+41
7.442519e+41
8.505901e+41
8.732147e+41
8.982525e+41
8.912005e+41
1.130482e+42
1.037526e+42
1.160644e+42
1.182948e+42
1.165935e+42
1.224274e+42
1.253963e+42
1.339535e+42
1.243148e+42
1.266089e+42
1.012305e+42
9.513610e+41
8.199849e+41
8.129465e+41
8.355480e+41
8.109578e+41
7.922994e+41
6.330254e+41
6.539464e+41
6.641954e+41
8.167738e+41
1.007717e+42
1.079528e+42
1.051080e+42
1.054001e+42
1.035477e+42
9.305009e+41
1.135804e+42
1.147074e+42
1.109531e+42
1.199373e+42
1.104551e+42
1.078391e+42
1.077718e+42
1.099097e+42
9.692630e+41
9.867147e+41
8.349389e+41
8.115773e+41
8.207186e+41
8.686781e+41
9.430686e+41
9.109627e+41
9.133169e+41
8.657201e+41
9.379935e+41
1.223442e+42
1.172078e+42
1.163246e+42
1.550594e+42
1.197121e+42
1.004623e+42
9.453765e+41
9.811411e+41
1.063284e+42
9.729597e+41
7.656554e+41
7.193425e+41
7.194151e+41
5.107877e+41
6.782675e+41
7.189196e+41
7.192246e+41
6.893808e+41
8.328644e+41
7.659858e+41
6.941061e+41
6.949111e+41
7.123056e+41
5.923375e+41
5.450323e+41
8.326962e+41
8.646980e+41
8.905729e+41
9.354605e+41
1.010950e+42
9.834254e+41
9.836064e+41
9.988555e+41
1.051038e+42
1.056230e+42
9.152486e+41
8.879748e+41
8.679949e+41
9.666581e+41
1.080115e+42
1.127562e+42
1.179830e+42
1.150379e+42
1.317073e+42
1.273972e+42
1.222457e+42
1.217698e+42
1.230201e+42
9.137979e+41
7.459502e+41
8.027453e+41
8.085612e+41
8.140097e+41
6.626143e+41
7.398385e+41
6.453842e+41
6.462810e+41
6.591018e+41
8.271224e+41
9.418056e+41
9.734856e+41
9.645232e+41
9.797683e+41
1.008470e+42
9.221693e+41
1.008045e+42
1.056242e+42
1.050388e+42
1.124770e+42
1.072901e+42
1.081342e+42
1.031275e+42
1.058073e+42
9.977126e+41
9.351059e+41
8.759934e+41
8.316843e+41
8.020842e+41
6.934230e+41
7.323701e+41
6.055198e+41
6.070471e+41
5.920465e+41
6.916385e+41
8.908334e+41
9.420860e+41
9.357416e+41
9.497178e+41
1.019725e+42
9.334338e+41
9.879156e+41
1.044395e+42
1.009003e+42
1.095334e+42
1.003726e+42
1.004745e+42
1.011371e+42
1.009803e+42
8.102259e+41
8.115286e+41
7.940910e+41
7.606144e+41
7.979204e+41
8.044180e+41
7.788675e+41
7.251044e+41
7.581840e+41
9.073891e+41
8.620148e+41
1.018845e+42
9.643720e+41
9.407367e+41
1.068620e+42
8.549167e+41
7.553707e+41
7.004445e+41
7.807545e+41
7.140993e+41
8.417365e+41
9.082942e+41
9.196176e+41
9.188333e+41
1.000730e+42
9.986250e+41
1.000411e+42
1.008858e+42
9.026550e+41
9.896431e+41
8.762695e+41
7.046354e+41
6.736661e+41
6.870839e+41
5.278309e+41
5.343024e+41
7.899097e+41
8.223405e+41
8.462145e+41
8.933977e+41
9.933081e+41
9.527020e+41
9.688962e+41
9.704228e+41
9.921563e+41
1.017702e+42
8.938960e+41
8.696977e+41
8.816418e+41
1.138348e+42
1.156683e+42
1.158466e+42
1.186539e+42
1.182913e+42
1.281344e+42
1.323506e+42
1.399190e+42
1.370919e+42
1.334814e+42
8.935237e+41
7.685188e+41
8.062833e+41
8.581753e+41
8.715779e+41
8.534869e+41
8.227531e+41
6.411718e+41
6.415213e+41
6.721267e+41
7.660845e+41
8.574467e+41
9.634057e+41
8.849362e+41
8.706293e+41
8.414341e+41
7.934221e+41
8.950830e+41
9.374448e+41
9.300927e+41
1.093669e+42
1.055166e+42
9.857469e+41
9.734604e+41
1.023225e+42
9.675973e+41
9.050207e+41
9.114753e+41
9.041241e+41
8.693040e+41
6.945856e+41
7.578546e+41
6.503237e+41
6.449031e+41
6.164963e+41
6.726554e+41
9.297759e+41
9.384403e+41
9.020033e+41
9.249632e+41
1.077118e+42
9.767215e+41
1.044957e+42
1.100231e+42
1.067651e+42
1.201937e+42
1.048477e+42
1.008946e+42
1.012578e+42
1.009595e+42
7.885661e+41
7.981323e+41
7.801698e+41
7.248981e+41
1.097377e+42
8.024682e+41
7.543175e+41
6.521202e+41
6.694412e+41
6.877740e+41
7.101830e+41
8.600642e+41
8.747881e+41
9.189968e+41
7.640942e+41
8.863035e+41
8.416807e+41
8.379935e+41
9.206999e+41
1.024404e+42
1.006875e+42
9.732152e+41
8.977934e+41
8.553400e+41
8.142019e+41
8.470296e+41
8.509501e+41
8.555957e+41
7.608618e+41
8.260885e+41
7.682193e+41
6.631857e+41
6.537995e+41
6.785550e+41
5.958741e+41
5.383566e+41
8.026675e+41
8.355372e+41
8.560204e+41
8.778512e+41
9.833883e+41
9.682610e+41
9.749198e+41
9.725380e+41
9.982368e+41
1.017173e+42
8.833556e+41
8.614992e+41
8.593560e+41
1.049105e+42
1.106944e+42
1.130343e+42
1.169776e+42
1.152192e+42
1.292340e+42
1.281693e+42
1.277475e+42
1.262070e+42
1.258220e+42
8.897602e+41
7.400425e+41
7.926286e+41
8.092522e+41
8.124055e+41
6.896895e+41
7.461080e+41
6.328556e+41
6.350589e+41
6.590032e+41
7.727346e+41
8.365959e+41
8.509307e+41
7.943402e+41
8.597125e+41
9.009656e+41
8.475608e+41
9.413351e+41
9.774593e+41
9.329043e+41
8.924754e+41
9.096161e+41
8.971897e+41
8.904291e+41
8.489107e+41
7.548819e+41
6.521807e+41
6.100749e+41
6.356813e+41
6.382090e+41
6.384434e+41
6.871833e+41
5.942247e+41
5.921521e+41
6.055360e+41
7.170628e+41
9.565702e+41
1.012465e+42
9.491914e+41
9.540569e+41
1.051737e+42
9.539659e+41
1.035036e+42
1.093945e+42
1.046908e+42
1.203565e+42
1.039251e+42
9.598452e+41
9.914876e+41
1.335433e+42
1.213765e+42
1.186914e+42
1.081218e+42
1.022404e+42
1.168967e+42
8.712931e+41
8.579228e+41
8.392410e+41
8.075969e+41
5.301680e+41
5.491756e+41
8.414684e+41
8.741294e+41
9.021184e+41
1.010557e+42
1.021618e+42
9.564812e+41
9.107936e+41
1.013489e+42
1.042441e+42
1.036024e+42
9.425919e+41
9.310867e+41
9.042152e+41
8.684228e+41
9.102400e+41
9.168392e+41
9.233144e+41
8.293550e+41
9.051846e+41
8.156404e+41
6.811829e+41
6.593443e+41
6.747788e+41
5.510508e+41
5.204407e+41
7.413723e+41
8.020036e+41
8.488077e+41
9.498745e+41
1.024688e+42
9.773295e+41
9.960903e+41
9.873895e+41
9.669893e+41
1.056423e+42
1.026050e+42
9.637531e+41
9.356628e+41
1.109226e+42
1.142448e+42
1.132566e+42
1.194501e+42
1.187257e+42
1.407392e+42
1.339589e+42
1.284757e+42
1.276690e+42
1.256564e+42
8.828181e+41
8.218940e+41
1.000487e+42
9.803542e+41
1.004867e+42
8.849976e+41
9.513005e+41
8.555206e+41
8.566447e+41
9.133769e+41
1.055000e+42
1.033646e+42
9.238884e+41
8.720744e+41
9.034607e+41
8.600517e+41
8.459243e+41
9.650522e+41
9.950615e+41
9.319413e+41
8.491852e+41
8.891264e+41
8.913085e+41
8.848485e+41
8.612347e+41
8.109730e+41
6.679068e+41
5.903668e+41
6.242856e+41
6.300498e+41
6.288139e+41
6.787259e+41
5.955324e+41
5.931186e+41
6.007572e+41
6.975520e+41
9.592059e+41
1.034718e+42
9.704163e+41
9.708182e+41
1.058301e+42
9.652800e+41
1.033601e+42
1.105155e+42
1.065653e+42
1.258350e+42
1.065559e+42
9.672553e+41
1.002119e+42
1.326002e+42
1.218945e+42
1.208533e+42
1.117012e+42
1.045456e+42
1.187024e+42
8.677944e+41
8.539797e+41
8.452106e+41
8.113093e+41
5.690133e+41
5.561506e+41
8.301930e+41
8.649505e+41
8.920840e+41
9.930247e+41
1.017541e+42
9.610869e+41
9.032711e+41
9.673554e+41
1.101222e+42
1.368843e+42
1.149021e+42
1.127971e+42
1.104985e+42
8.839408e+41
8.248159e+41
8.181994e+41
8.771003e+41
8.624070e+41
9.679041e+41
5.971314e+41
6.726840e+41
6.642376e+41
6.858274e+41
9.185139e+41
9.529471e+41
1.111680e+42
1.059674e+42
1.155250e+42
1.171980e+42
1.201978e+42
1.310971e+42
1.306847e+42
1.316221e+42
1.164263e+42
1.569055e+42
1.455311e+42
1.452348e+42
1.354800e+42
1.151246e+42
1.139393e+42
8.681583e+41
8.897655e+41
8.546511e+41
7.996420e+41
3.564430e+41
3.947830e+41
3.984755e+41
3.998534e+41
4.565124e+41
4.835211e+41
6.135691e+41
6.005456e+41
7.012886e+41
8.861199e+41
9.463183e+41
1.150416e+42
1.156756e+42
1.208223e+42
1.350743e+42
1.632467e+42
1.533903e+42
1.553728e+42
1.470480e+42
1.442756e+42
1.808705e+42
1.559171e+42
1.605843e+42
1.506331e+42
1.166224e+42
8.544100e+41
8.892869e+41
8.880725e+41
8.952984e+41
8.801163e+41
4.426626e+41
4.438877e+41
3.860742e+41
4.470635e+41
6.454479e+41
6.830039e+41
8.310220e+41
8.297174e+41
8.754556e+41
8.771282e+41
1.225143e+42
1.660474e+42
1.704694e+42
1.661740e+42
1.716438e+42
2.041262e+42
1.835422e+42
1.867569e+42
2.245031e+42
2.107425e+42
1.760088e+42
1.293893e+42
1.247718e+42
1.225853e+42
1.111773e+42
7.461463e+41
8.179326e+41
7.860066e+41
6.832023e+41
6.987291e+41
7.876351e+41
8.150297e+41
8.138044e+41
1.188582e+42
1.142744e+42
1.295750e+42
1.210960e+42
1.382442e+42
1.345339e+42
1.351704e+42
1.592191e+42
1.563760e+42
1.665532e+42
1.521738e+42
1.757740e+42
1.634077e+42
1.634236e+42
1.438836e+42
1.192168e+42
1.249357e+42
9.223346e+41
9.962061e+41
9.456705e+41
1.035926e+42
7.342862e+41
7.451052e+41
7.651039e+41
7.870518e+41
9.899172e+41
9.003290e+41
1.063765e+42
1.005381e+42
1.051931e+42
1.026610e+42
1.035157e+42
1.226538e+42
1.211467e+42
1.229827e+42
1.068739e+42
1.512578e+42
1.398560e+42
1.381391e+42
1.339914e+42
1.214550e+42
1.187357e+42
9.403060e+41
9.657530e+41
9.220357e+41
8.532794e+41
3.947943e+41
4.673637e+41
4.636462e+41
4.746204e+41
4.954559e+41
5.268695e+41
6.298763e+41
6.010964e+41
7.436899e+41
9.953539e+41
1.023869e+42
1.174525e+42
1.184713e+42
1.198336e+42
1.299941e+42
1.644975e+42
1.595342e+42
1.614174e+42
1.485105e+42
1.408426e+42
1.763634e+42
1.513484e+42
1.583045e+42
1.508514e+42
1.219230e+42
8.472204e+41
8.606237e+41
8.661307e+41
8.816252e+41
8.429947e+41
4.347085e+41
4.540393e+41
3.804429e+41
4.320918e+41
6.237929e+41
6.655960e+41
8.064654e+41
8.125450e+41
8.610225e+41
8.938438e+41
1.231731e+42
1.624903e+42
1.623250e+42
1.914799e+42
1.722126e+42
1.977388e+42
1.810968e+42
1.864280e+42
1.997266e+42
1.977111e+42
1.637898e+42
1.254186e+42
1.258818e+42
9.134640e+41
1.100799e+42
8.544310e+41
8.441462e+41
8.000835e+41
9.988200e+41
8.405117e+41
8.769983e+41
8.371833e+41
8.275578e+41
1.123120e+42
1.090649e+42
1.271908e+42
1.244171e+42
1.399972e+42
1.343949e+42
1.347232e+42
1.658308e+42
1.709450e+42
1.816560e+42
1.665549e+42
1.911872e+42
1.719381e+42
1.717115e+42
1.519900e+42
1.205589e+42
1.327498e+42
9.783664e+41
1.038826e+42
9.514659e+41
1.207944e+42
8.235189e+41
8.325437e+41
8.448950e+41
9.279329e+41
1.168775e+42
1.090978e+42
1.323832e+42
1.219611e+42
1.335693e+42
1.294617e+42
1.298616e+42
1.472952e+42
1.464931e+42
1.430324e+42
1.264286e+42
1.658383e+42
1.477709e+42
1.457035e+42
1.365168e+42
1.140146e+42
1.136046e+42
9.015492e+41
9.214277e+41
8.727992e+41
8.026088e+41
3.560053e+41
4.078972e+41
4.093524e+41
4.244050e+41
4.873630e+41
5.068678e+41
6.107915e+41
5.878368e+41
7.160518e+41
9.384165e+41
9.856187e+41
1.180116e+42
1.183730e+42
1.197686e+42
1.276722e+42
1.618620e+42
1.559372e+42
1.583161e+42
1.475339e+42
1.442142e+42
1.753636e+42
1.473779e+42
1.554206e+42
1.488605e+42
1.207784e+42
8.478274e+41
8.822447e+41
8.730963e+41
8.934761e+41
8.115180e+41
4.405343e+41
4.691073e+41
3.867145e+41
4.480092e+41
6.643229e+41
6.852285e+41
7.698397e+41
7.561210e+41
1.275448e+42
1.133065e+42
1.394794e+42
1.445800e+42
1.439661e+42
1.597719e+42
1.464097e+42
1.865178e+42
1.798451e+42
2.020931e+42
1.763206e+42
1.993447e+42
1.767083e+42
1.679751e+42
1.685826e+42
1.488054e+42
1.479825e+42
1.041565e+42
9.693903e+41
7.514893e+41
7.352046e+41
6.225711e+41
6.865101e+41
6.989243e+41
6.968332e+41
1.009237e+42
1.062090e+42
1.267426e+42
1.240328e+42
1.451986e+42
1.525396e+42
1.437601e+42
1.738236e+42
1.757144e+42
1.837961e+42
1.642697e+42
1.880639e+42
1.698658e+42
1.699570e+42
1.487183e+42
1.186028e+42
1.293117e+42
8.920464e+41
9.306463e+41
8.999251e+41
1.054140e+42
7.301781e+41
7.874302e+41
8.001036e+41
8.544953e+41
1.149891e+42
1.041259e+42
1.198578e+42
1.124740e+42
1.239774e+42
1.321668e+42
1.306855e+42
1.497460e+42
1.483580e+42
1.447593e+42
1.175043e+42
1.662385e+42
1.564923e+42
1.559065e+42
1.439302e+42
1.218385e+42
1.199910e+42
9.241485e+41
9.625754e+41
9.371087e+41
9.065189e+41
4.007600e+41
4.438451e+41
4.437145e+41
4.648782e+41
4.834457e+41
5.209294e+41
6.376970e+41
6.031117e+41
7.290498e+41
9.444279e+41
9.886535e+41
1.163274e+42
1.171982e+42
1.182298e+42
1.296639e+42
1.625738e+42
1.555548e+42
1.577692e+42
1.469555e+42
1.428574e+42
1.761507e+42
1.500457e+42
1.578058e+42
1.499307e+42
1.234670e+42
9.473035e+41
9.721331e+41
1.017230e+42
1.072081e+42
1.055383e+42
6.821839e+41
7.341451e+41
6.834773e+41
1.321153e+42
1.291338e+42
1.228330e+42
1.180791e+42
1.110734e+42
1.298108e+42
1.156253e+42
1.352722e+42
1.290090e+42
1.293048e+42
9.341969e+41
1.083005e+42
1.754653e+42
1.760383e+42
1.947593e+42
2.065981e+42
2.121239e+42
1.906399e+42
1.934924e+42
1.901090e+42
1.629300e+42
1.637991e+42
9.763110e+41
9.528333e+41
7.790170e+41
7.232348e+41
6.800507e+41
7.296820e+41
6.938815e+41
7.001952e+41
1.045993e+42
1.043041e+42
1.273063e+42
1.275036e+42
1.430786e+42
1.426624e+42
1.387083e+42
1.712769e+42
1.773292e+42
1.880190e+42
1.709203e+42
1.859819e+42
1.645060e+42
1.647078e+42
1.478290e+42
1.180393e+42
1.335826e+42
9.651876e+41
9.820067e+41
9.165533e+41
1.033714e+42
7.655846e+41
7.769480e+41
7.973873e+41
8.304141e+41
1.222910e+42
1.058439e+42
1.227040e+42
1.162196e+42
1.232983e+42
1.251919e+42
1.258738e+42
1.501940e+42
1.471213e+42
1.462576e+42
1.138753e+42
1.598279e+42
1.474315e+42
1.463083e+42
1.399712e+42
1.259170e+42
1.221119e+42
9.146007e+41
9.546411e+41
9.289045e+41
8.814717e+41
4.169179e+41
4.910640e+41
4.852822e+41
5.085449e+41
4.950388e+41
5.415916e+41
6.570048e+41
6.194061e+41
7.613679e+41
1.014757e+42
1.040423e+42
1.170614e+42
1.185403e+42
1.206594e+42
1.239693e+42
1.440831e+42
1.389184e+42
1.391361e+42
1.259261e+42
1.209629e+42
1.523561e+42
1.293014e+42
1.348279e+42
1.241714e+42
1.074355e+42
8.914770e+41
8.753036e+41
9.653056e+41
1.016183e+42
9.787730e+41
6.427041e+41
7.055269e+41
6.843935e+41
1.302845e+42
1.272052e+42
1.225577e+42
1.201167e+42
1.108008e+42
1.299591e+42
1.161709e+42
1.359146e+42
1.283210e+42
1.275964e+42
9.448115e+41
1.080427e+42
1.714791e+42
1.729633e+42
1.929821e+42
2.066426e+42
2.121525e+42
1.901169e+42
1.921079e+42
1.882679e+42
1.600382e+42
1.640198e+42
1.021345e+42
9.898604e+41
8.008106e+41
7.509347e+41
6.923029e+41
7.324245e+41
7.015339e+41
7.152993e+41
1.072959e+42
1.051210e+42
1.287349e+42
1.291281e+42
1.439778e+42
1.405056e+42
1.382149e+42
1.725895e+42
1.784531e+42
1.887105e+42
1.712062e+42
1.857497e+42
1.628767e+42
1.629574e+42
1.471396e+42
1.179052e+42
1.229782e+42
9.028080e+41
9.360869e+41
8.369074e+41
9.654195e+41
7.301893e+41
7.772419e+41
7.961654e+41
8.153066e+41
1.276688e+42
1.205442e+42
1.335748e+42
1.270720e+42
1.353576e+42
1.340225e+42
1.314855e+42
1.494069e+42
1.465343e+42
1.475409e+42
1.088834e+42
1.577282e+42
1.448011e+42
1.421959e+42
1.375334e+42
1.256330e+42
1.221415e+42
9.474003e+41
9.968571e+41
9.657249e+41
9.376415e+41
4.954316e+41
4.975705e+41
4.940718e+41
5.859961e+41
5.438331e+41
5.769360e+41
6.667779e+41
6.173506e+41
7.486594e+41
9.684268e+41
9.462661e+41
1.115492e+42
1.140343e+42
1.113714e+42
1.192422e+42
1.506006e+42
1.449747e+42
1.450041e+42
1.336005e+42
1.231895e+42
1.484680e+42
1.253814e+42
1.257390e+42
1.147982e+42
9.464565e+41
6.333986e+41
6.865436e+41
7.047531e+41
7.035505e+41
5.288393e+41
2.548411e+41
2.616370e+41
2.830815e+41
6.626175e+41
6.681070e+41
7.174207e+41
6.335999e+41
6.368631e+41
1.085091e+42
1.284683e+42
1.510899e+42
1.578530e+42
1.577664e+42
1.419342e+42
1.462543e+42
1.810992e+42
1.820757e+42
2.048358e+42
1.843581e+42
1.764449e+42
1.549719e+42
1.508733e+42
1.464763e+42
1.302722e+42
1.406833e+42
9.813461e+41
9.682292e+41
7.319828e+41
7.968336e+41
8.914612e+41
9.332263e+41
9.107973e+41
9.060069e+41
1.172714e+42
1.002838e+42
1.228805e+42
1.243988e+42
1.270591e+42
1.289898e+42
1.136752e+42
1.385553e+42
1.442106e+42
1.458275e+42
1.307691e+42
1.658663e+42
1.423146e+42
1.418945e+42
1.449702e+42
1.124459e+42
1.116071e+42
9.381174e+41
9.233656e+41
9.422619e+41
8.684945e+41
5.757628e+41
7.080030e+41
7.848105e+41
7.316131e+41
1.338928e+42
1.297100e+42
1.217739e+42
1.218048e+42
1.293480e+42
1.333769e+42
1.322527e+42
1.581291e+42
1.493504e+42
1.537149e+42
9.714309e+41
1.231400e+42
1.214734e+42
1.227015e+42
1.157653e+42
1.175885e+42
1.203662e+42
8.174139e+41
8.559536e+41
8.154081e+41
8.398224e+41
6.530198e+41
6.114416e+41
5.424621e+41
5.623818e+41
6.068735e+41
5.303642e+41
6.280141e+41
5.894852e+41
6.077739e+41
7.063156e+41
7.188467e+41
1.276947e+42
1.293953e+42
1.312092e+42
1.466350e+42
1.770413e+42
1.672406e+42
1.680680e+42
1.689460e+42
1.709972e+42
1.919239e+42
1.354331e+42
1.338145e+42
1.504337e+42
1.351782e+42
1.068601e+42
1.065647e+42
1.111902e+42
1.064035e+42
8.850174e+41
6.090424e+41
6.471736e+41
6.628264e+41
7.960237e+41
6.522373e+41
8.275644e+41
8.254681e+41
8.058981e+41
1.482290e+42
1.518745e+42
1.594627e+42
1.581611e+42
1.612708e+42
1.379728e+42
1.481991e+42
1.977165e+42
1.977040e+42
2.133264e+42
1.725815e+42
1.743928e+42
1.647049e+42
1.698174e+42
1.671926e+42
1.621636e+42
1.616182e+42
9.421154e+41
9.435641e+41
7.804109e+41
8.061141e+41
9.449836e+41
1.007220e+42
9.480612e+41
9.265345e+41
1.207352e+42
1.035785e+42
1.257869e+42
1.277558e+42
1.275590e+42
1.268072e+42
1.134697e+42
1.429382e+42
1.468197e+42
1.485787e+42
1.316448e+42
1.621472e+42
1.381846e+42
1.384772e+42
1.456520e+42
1.196556e+42
1.162040e+42
9.260325e+41
8.783217e+41
8.720389e+41
7.432654e+41
5.710716e+41
7.439417e+41
8.181635e+41
7.326133e+41
1.333295e+42
1.298585e+42
1.245604e+42
1.277447e+42
1.414846e+42
1.543704e+42
1.438795e+42
1.630376e+42
1.531753e+42
1.570334e+42
9.858092e+41
1.277914e+42
1.268098e+42
1.283159e+42
1.175463e+42
1.144742e+42
1.192890e+42
8.343043e+41
8.695040e+41
8.420178e+41
8.831622e+41
6.574415e+41
6.004770e+41
5.400012e+41
5.521193e+41
6.137774e+41
5.385585e+41
6.315181e+41
5.962958e+41
6.078458e+41
6.928863e+41
7.186688e+41
1.306575e+42
1.318723e+42
1.340603e+42
1.469309e+42
1.764919e+42
1.667566e+42
1.669306e+42
2.099029e+42
1.937526e+42
2.059033e+42
1.523551e+42
1.510504e+42
1.516243e+42
1.653547e+42
1.357420e+42
1.356888e+42
1.525644e+42
1.075581e+42
1.107958e+42
1.008906e+42
9.482385e+41
9.726537e+41
1.404068e+42
9.150432e+41
1.017224e+42
1.016083e+42
8.644554e+41
1.368666e+42
1.458223e+42
1.492238e+42
1.533122e+42
1.568422e+42
1.255765e+42
1.359623e+42
1.845244e+42
1.845532e+42
2.021949e+42
1.752432e+42
1.723974e+42
1.579578e+42
1.599019e+42
1.553796e+42
1.447793e+42
1.488028e+42
9.103898e+41
9.101624e+41
7.344383e+41
7.955755e+41
9.092262e+41
9.658315e+41
9.199057e+41
9.053594e+41
1.149623e+42
9.930312e+41
1.235228e+42
1.247683e+42
1.234438e+42
1.389524e+42
1.250898e+42
1.587771e+42
1.642350e+42
1.680423e+42
1.595165e+42
1.910399e+42
1.657994e+42
1.654321e+42
1.719550e+42
1.275879e+42
1.248686e+42
9.628376e+41
9.064935e+41
8.800420e+41
7.038046e+41
5.150312e+41
6.740668e+41
7.860913e+41
7.190178e+41
1.392522e+42
1.352459e+42
1.296920e+42
1.335602e+42
1.448968e+42
1.543223e+42
1.460825e+42
1.713772e+42
1.594219e+42
1.636357e+42
9.893537e+41
1.263918e+42
1.245388e+42
1.270233e+42
1.197448e+42
1.223108e+42
1.244692e+42
8.370095e+41
8.701750e+41
8.508355e+41
8.808938e+41
6.859493e+41
6.456171e+41
5.671272e+41
5.727429e+41
6.032761e+41
5.362052e+41
6.309498e+41
5.963928e+41
6.052097e+41
6.986752e+41
7.121264e+41
1.250493e+42
1.250465e+42
1.726605e+42
1.503753e+42
1.723504e+42
1.710277e+42
1.710498e+42
1.897115e+42
1.810674e+42
1.954954e+42
1.552348e+42
1.578707e+42
1.152728e+42
1.771947e+42
1.581158e+42
1.501382e+42
1.644262e+42
1.453984e+42
1.376273e+42
1.186361e+42
1.052692e+42
1.047070e+42
1.386602e+42
8.051514e+41
9.382926e+41
9.326552e+41
8.054651e+41
1.340509e+42
1.424606e+42
1.487668e+42
1.499979e+42
1.540796e+42
1.265378e+42
1.348071e+42
2.097811e+42
2.111585e+42
2.249345e+42
1.843313e+42
1.843756e+42
1.723606e+42
1.831764e+42
1.818082e+42
1.690694e+42
1.659384e+42
7.674537e+41
7.626229e+41
6.387166e+41
8.011491e+41
9.379152e+41
1.051547e+42
9.173042e+41
8.750583e+41
1.164906e+42
1.071734e+42
1.212585e+42
1.202113e+42
1.197845e+42
1.385953e+42
1.240208e+42
1.603505e+42
1.644477e+42
1.657614e+42
1.531023e+42
1.879931e+42
1.720141e+42
1.729933e+42
1.784376e+42
1.300053e+42
1.259690e+42
8.973247e+41
8.728944e+41
8.626886e+41
7.384684e+41
5.130971e+41
6.672136e+41
7.750736e+41
7.005153e+41
1.352600e+42
1.323024e+42
1.290188e+42
1.332221e+42
1.438470e+42
1.520715e+42
1.442762e+42
1.690459e+42
1.573382e+42
1.620070e+42
9.961816e+41
1.250460e+42
1.217203e+42
1.236917e+42
1.173422e+42
1.193314e+42
1.223011e+42
8.266712e+41
8.549530e+41
8.344287e+41
8.500114e+41
6.743452e+41
6.379337e+41
5.583231e+41
5.591015e+41
6.159600e+41
5.430004e+41
6.265055e+41
5.976534e+41
6.042104e+41
7.052479e+41
7.228462e+41
1.278153e+42
1.278249e+42
1.738991e+42
1.498269e+42
1.728378e+42
1.717058e+42
1.717194e+42
1.904615e+42
1.813972e+42
1.940511e+42
1.530226e+42
1.561282e+42
1.165126e+42
1.716086e+42
1.551352e+42
1.472853e+42
1.605836e+42
1.390442e+42
1.319947e+42
1.127822e+42
9.932819e+41
9.858761e+41
1.253294e+42
7.615282e+41
8.727872e+41
8.721691e+41
7.647023e+41
1.416392e+42
1.549360e+42
1.557248e+42
1.571030e+42
1.577123e+42
1.351166e+42
1.379842e+42
2.009205e+42
2.028916e+42
2.146370e+42
1.620396e+42
1.583990e+42
1.533738e+42
1.634733e+42
1.650768e+42
1.531928e+42
1.546734e+42
7.673603e+41
7.592851e+41
6.437569e+41
8.580547e+41
9.418603e+41
1.034107e+42
9.014184e+41
8.592101e+41
1.147238e+42
1.042380e+42
1.198647e+42
1.187062e+42
1.179451e+42
1.331153e+42
1.217949e+42
1.587912e+42
1.631191e+42
1.647625e+42
1.535577e+42
1.886923e+42
1.704875e+42
1.711579e+42
1.760559e+42
1.284183e+42
1.271122e+42
8.516855e+41
8.030939e+41
7.856708e+41
7.350238e+41
4.829491e+41
6.713240e+41
7.574532e+41
6.942808e+41
1.406418e+42
1.348569e+42
1.390132e+42
1.471674e+42
1.544675e+42
1.505183e+42
1.464381e+42
1.660585e+42
1.567044e+42
1.635557e+42
9.741928e+41
1.216113e+42
1.176428e+42
1.172100e+42
1.142759e+42
1.203613e+42
1.222358e+42
8.415430e+41
8.718902e+41
8.286953e+41
8.249117e+41
6.776804e+41
6.493943e+41
5.721830e+41
5.883081e+41
6.346616e+41
5.592526e+41
6.289977e+41
6.151739e+41
1.032642e+42
9.730955e+41
9.120986e+41
1.140250e+42
1.162092e+42
1.342821e+42
1.161490e+42
1.427711e+42
1.561567e+42
1.579889e+42
1.394660e+42
1.541005e+42
1.934108e+42
1.766363e+42
1.770904e+42
1.715722e+42
2.024340e+42
1.773705e+42
1.574799e+42
1.655940e+42
1.393012e+42
1.282293e+42
9.370021e+41
8.701642e+41
8.673322e+41
1.142039e+42
8.123794e+41
9.157399e+41
9.044571e+41
8.151644e+41
1.444185e+42
1.585183e+42
1.578265e+42
1.627344e+42
1.622663e+42
1.321001e+42
1.367538e+42
1.970532e+42
2.008414e+42
2.156779e+42
1.691481e+42
1.607131e+42
1.527622e+42
1.576322e+42
1.587358e+42
1.449297e+42
1.505588e+42
8.149508e+41
7.894899e+41
6.347473e+41
8.634386e+41
9.192344e+41
9.827257e+41
8.842342e+41
8.563970e+41
1.160660e+42
1.028418e+42
1.202810e+42
1.195163e+42
1.185286e+42
1.244269e+42
1.180240e+42
1.581974e+42
1.621490e+42
1.648639e+42
1.562229e+42
1.865759e+42
1.658504e+42
1.666379e+42
1.740774e+42
1.316130e+42
1.286667e+42
8.720487e+41
8.233058e+41
8.018513e+41
6.955005e+41
5.089597e+41
7.209428e+41
7.908756e+41
7.106025e+41
1.439879e+42
1.375991e+42
1.391637e+42
1.457026e+42
1.548199e+42
1.554725e+42
1.485786e+42
1.661877e+42
1.578981e+42
1.640303e+42
9.446291e+41
1.212945e+42
1.205406e+42
1.202709e+42
1.142249e+42
1.171158e+42
1.198977e+42
8.127608e+41
8.224251e+41
7.576685e+41
7.717396e+41
6.283781e+41
5.784746e+41
5.204115e+41
5.416523e+41
3.766948e+41
3.062453e+41
3.041045e+41
3.046458e+41
5.052754e+41
5.182591e+41
4.302041e+41
5.483154e+41
6.291396e+41
8.441496e+41
9.333724e+41
1.353053e+42
1.478884e+42
1.504153e+42
1.661802e+42
1.642209e+42
1.838647e+42
1.755943e+42
1.769479e+42
1.605185e+42
2.152597e+42
1.816101e+42
1.738072e+42
1.755614e+42
1.402172e+42
1.342289e+42
1.170701e+42
1.132449e+42
1.059104e+42
1.432780e+42
8.100002e+41
8.484344e+41
8.018801e+41
7.547425e+41
1.257520e+42
1.452468e+42
1.446749e+42
1.458697e+42
1.497834e+42
1.260861e+42
1.289690e+42
1.914746e+42
1.929280e+42
2.018649e+42
1.589237e+42
1.556785e+42
1.508960e+42
1.597731e+42
1.574924e+42
1.380850e+42
1.408824e+42
6.667495e+41
6.528173e+41
5.699935e+41
8.908446e+41
9.008756e+41
9.827474e+41
8.768973e+41
8.430583e+41
1.075083e+42
1.002086e+42
1.217223e+42
1.219454e+42
1.219788e+42
1.304430e+42
1.205718e+42
1.555145e+42
1.615395e+42
1.639734e+42
1.611103e+42
1.913676e+42
1.687855e+42
1.695618e+42
1.759451e+42
1.300268e+42
1.293762e+42
9.083318e+41
8.471283e+41
8.236330e+41
7.037416e+41
5.185247e+41
7.262769e+41
7.998688e+41
7.278561e+41
1.485254e+42
1.412448e+42
1.419246e+42
1.464662e+42
1.501850e+42
1.620187e+42
1.556782e+42
1.830394e+42
1.745272e+42
1.827076e+42
1.121132e+42
1.405462e+42
1.419730e+42
1.416324e+42
1.402767e+42
1.332364e+42
1.336897e+42
8.554256e+41
8.561742e+41
9.407650e+41
9.501013e+41
7.605227e+41
7.301151e+41
6.862200e+41
6.544654e+41
5.350781e+41
4.792380e+41
5.041011e+41
5.051212e+41
5.770145e+41
6.426949e+41
6.680166e+41
8.546254e+41
9.175969e+41
1.265943e+42
1.235884e+42
1.500273e+42
1.668496e+42
1.705166e+42
1.770228e+42
1.743619e+42
1.954198e+42
1.741979e+42
1.762718e+42
1.544469e+42
2.069479e+42
1.852708e+42
1.731958e+42
1.753719e+42
1.451122e+42
1.343232e+42
1.102411e+42
1.080952e+42
1.035493e+42
1.376238e+42
8.321173e+41
8.734988e+41
8.012689e+41
7.586204e+41
1.322331e+42
1.495882e+42
1.462158e+42
1.491514e+42
1.498449e+42
1.220851e+42
1.282683e+42
2.006698e+42
2.025397e+42
2.042046e+42
1.737075e+42
1.776402e+42
1.774819e+42
2.163365e+42
2.149207e+42
1.978624e+42
1.923849e+42
1.146270e+42
1.136173e+42
1.101772e+42
1.064743e+42
1.030076e+42
1.116955e+42
7.281817e+41
7.052414e+41
8.049060e+41
7.856241e+41
8.865532e+41
9.153230e+41
1.031366e+42
1.184997e+42
1.199245e+42
1.221007e+42
1.225457e+42
1.216687e+42
1.631131e+42
2.013322e+42
1.919227e+42
1.995864e+42
1.918383e+42
1.539910e+42
1.330343e+42
1.267381e+42
1.243475e+42
1.248495e+42
8.131165e+41
4.980361e+41
7.011147e+41
7.347036e+41
7.141495e+41
1.114822e+42
1.114636e+42
1.047720e+42
1.165136e+42
1.344253e+42
1.416455e+42
1.504817e+42
1.426133e+42
1.279657e+42
1.279787e+42
1.180752e+42
1.515428e+42
1.687012e+42
1.640785e+42
1.725000e+42
1.681292e+42
1.522631e+42
1.401904e+42
1.402475e+42
1.526817e+42
1.474960e+42
1.220270e+42
1.296678e+42
1.214607e+42
9.524557e+41
9.946458e+41
9.951347e+41
9.430425e+41
9.763376e+41
1.252191e+42
1.032003e+42
1.078261e+42
8.241557e+41
8.645583e+41
9.986910e+41
8.241691e+41
1.266453e+42
1.300637e+42
1.428341e+42
1.250849e+42
1.474317e+42
1.441204e+42
1.422918e+42
1.392264e+42
1.595318e+42
2.324723e+42
1.991899e+42
2.128162e+42
2.003966e+42
1.771630e+42
1.518977e+42
1.587757e+42
1.580237e+42
1.634434e+42
1.950895e+42
1.243007e+42
1.410965e+42
1.249087e+42
1.240627e+42
1.566921e+42
1.633638e+42
1.599118e+42
1.720637e+42
1.887519e+42
1.401195e+42
1.564190e+42
1.674575e+42
1.674100e+42
1.669082e+42
1.656809e+42
1.787249e+42
1.728192e+42
1.962641e+42
1.750697e+42
1.601569e+42
1.438454e+42
1.090037e+42
1.083408e+42
1.103827e+42
1.241923e+42
1.311471e+42
1.546137e+42
1.205920e+42
1.186969e+42
1.397797e+42
1.390964e+42
1.488722e+42
1.528498e+42
1.606451e+42
1.593333e+42
1.496141e+42
1.345606e+42
1.347174e+42
1.355659e+42
1.515961e+42
2.019380e+42
1.954542e+42
2.019681e+42
1.953033e+42
1.506082e+42
1.337527e+42
1.263139e+42
1.246564e+42
1.242351e+42
9.564831e+41
4.821517e+41
6.781035e+41
6.526718e+41
6.422396e+41
1.020300e+42
1.019144e+42
9.593412e+41
1.069107e+42
1.241876e+42
1.282180e+42
1.421984e+42
1.328828e+42
1.248280e+42
1.233469e+42
1.194912e+42
1.498903e+42
1.683810e+42
1.640840e+42
1.714515e+42
1.719603e+42
1.536156e+42
1.406225e+42
1.408590e+42
1.530058e+42
1.432558e+42
1.198126e+42
1.287923e+42
1.216212e+42
9.727797e+41
9.957082e+41
9.969143e+41
9.507168e+41
9.820118e+41
1.259549e+42
1.046835e+42
1.093219e+42
8.321174e+41
8.694054e+41
9.905995e+41
8.131747e+41
1.273038e+42
1.300078e+42
1.421627e+42
1.228352e+42
1.452590e+42
1.412984e+42
1.398404e+42
1.379091e+42
1.631379e+42
2.328613e+42
1.964280e+42
2.106820e+42
1.987181e+42
1.753751e+42
1.500016e+42
1.613247e+42
1.596133e+42
1.653867e+42
1.897112e+42
1.222149e+42
1.397665e+42
1.239108e+42
1.247136e+42
1.616817e+42
1.666380e+42
1.579632e+42
1.691573e+42
1.867911e+42
1.417454e+42
1.584806e+42
1.727699e+42
1.719649e+42
1.693052e+42
1.601234e+42
1.775090e+42
1.754653e+42
1.988797e+42
1.755252e+42
1.607217e+42
1.431523e+42
1.047948e+42
1.044998e+42
1.061133e+42
1.269867e+42
1.286242e+42
1.492769e+42
1.167997e+42
1.149429e+42
1.337871e+42
1.334241e+42
1.463831e+42
1.515755e+42
1.588437e+42
1.510017e+42
1.447635e+42
1.315431e+42
1.317460e+42
1.324954e+42
1.532022e+42
2.006934e+42
1.909528e+42
1.984166e+42
1.942982e+42
1.532546e+42
1.359155e+42
1.281978e+42
1.263047e+42
1.262042e+42
9.416880e+41
5.082591e+41
7.423851e+41
6.899632e+41
6.794621e+41
1.048124e+42
1.045723e+42
9.835400e+41
1.083462e+42
1.262542e+42
1.327998e+42
1.449291e+42
1.297569e+42
1.246643e+42
1.587890e+42
1.219154e+42
1.454109e+42
1.449142e+42
1.442929e+42
1.333619e+42
1.516469e+42
1.343267e+42
1.354089e+42
1.331805e+42
1.287372e+42
1.618413e+42
1.630174e+42
1.789812e+42
1.692392e+42
1.653259e+42
1.393933e+42
1.404827e+42
1.248956e+42
1.288446e+42
1.324968e+42
1.041334e+42
9.533304e+41
8.247592e+41
8.523856e+41
9.509326e+41
8.613066e+41
1.256669e+42
1.303107e+42
1.440626e+42
1.295216e+42
1.529682e+42
1.483351e+42
1.443840e+42
1.421346e+42
1.635998e+42
2.328553e+42
2.001708e+42
2.181765e+42
2.065201e+42
1.860658e+42
1.594310e+42
1.513666e+42
1.507738e+42
1.720067e+42
1.874017e+42
1.199247e+42
1.366402e+42
1.143201e+42
1.097860e+42
1.378903e+42
1.406449e+42
1.429377e+42
1.477158e+42
1.615428e+42
1.338375e+42
1.517526e+42
1.749883e+42
1.745785e+42
1.733016e+42
1.654799e+42
1.856243e+42
1.880514e+42
2.190153e+42
1.857669e+42
1.661342e+42
1.477658e+42
1.024876e+42
1.024559e+42
1.049424e+42
1.323551e+42
1.304523e+42
1.489060e+42
1.155328e+42
1.130768e+42
1.297976e+42
1.289166e+42
1.450873e+42
1.524207e+42
1.583433e+42
1.455919e+42
1.413084e+42
1.287452e+42
1.298321e+42
1.299596e+42
1.581773e+42
2.000026e+42
1.860131e+42
1.919257e+42
1.896830e+42
1.509632e+42
1.326010e+42
1.299911e+42
1.265064e+42
1.277669e+42
8.783533e+41
5.123042e+41
7.545924e+41
7.065329e+41
6.770006e+41
1.103444e+42
1.112212e+42
1.004578e+42
1.202787e+42
1.999221e+42
1.940697e+42
2.013652e+42
1.730630e+42
1.664515e+42
1.772881e+42
1.384822e+42
1.643591e+42
1.637394e+42
1.657386e+42
9.615303e+41
1.355323e+42
1.239511e+42
1.331035e+42
1.313523e+42
1.627853e+42
1.793620e+42
1.661656e+42
1.894543e+42
1.677074e+42
1.575888e+42
1.336756e+42
1.322898e+42
1.226132e+42
1.276151e+42
1.226193e+42
1.048408e+42
1.022229e+42
8.155905e+41
8.581142e+41
9.783284e+41
8.014594e+41
1.260554e+42
1.288494e+42
1.403069e+42
1.236071e+42
1.464156e+42
1.441804e+42
1.430458e+42
1.403778e+42
1.648200e+42
2.333136e+42
1.965102e+42
2.080964e+42
2.019556e+42
1.779160e+42
1.549745e+42
1.478132e+42
1.463344e+42
1.703535e+42
1.804810e+42
1.124593e+42
1.189302e+42
1.072906e+42
1.003857e+42
1.320171e+42
1.353656e+42
1.424764e+42
1.496250e+42
1.552528e+42
1.271056e+42
1.475147e+42
1.830795e+42
1.802269e+42
1.768855e+42
1.677884e+42
1.851389e+42
1.831904e+42
2.178388e+42
1.906899e+42
1.762018e+42
1.558592e+42
1.069393e+42
1.068093e+42
1.105960e+42
1.336553e+42
1.384097e+42
1.642269e+42
1.239676e+42
1.198462e+42
1.345726e+42
1.347152e+42
1.493348e+42
1.545053e+42
1.614411e+42
1.588103e+42
1.476127e+42
1.289597e+42
1.309506e+42
1.311964e+42
1.567229e+42
2.023761e+42
1.913424e+42
1.981939e+42
1.930313e+42
1.500213e+42
1.333336e+42
1.298729e+42
1.264084e+42
1.272820e+42
9.112661e+41
5.000309e+41
7.022752e+41
6.030585e+41
6.074679e+41
6.168263e+41
6.397986e+41
5.950230e+41
7.544275e+41
1.203562e+42
1.225055e+42
1.309111e+42
1.053056e+42
1.032496e+42
1.167027e+42
1.223451e+42
1.622537e+42
1.572785e+42
1.598908e+42
1.293664e+42
1.468719e+42
1.332610e+42
1.475875e+42
1.476588e+42
1.661551e+42
1.901753e+42
1.639405e+42
1.688897e+42
1.570392e+42
1.431514e+42
1.385742e+42
1.387144e+42
1.249316e+42
1.264439e+42
1.276307e+42
1.048109e+42
1.098560e+42
1.097823e+42
1.067674e+42
1.227869e+42
9.860982e+41
1.359485e+42
1.394665e+42
1.549621e+42
1.403157e+42
1.588810e+42
1.467514e+42
1.421546e+42
1.395929e+42
1.576239e+42
2.321633e+42
2.061962e+42
2.135143e+42
2.048030e+42
1.802290e+42
1.558355e+42
1.474780e+42
1.463553e+42
1.646433e+42
1.846749e+42
1.100368e+42
1.131127e+42
1.034505e+42
9.705764e+41
1.220783e+42
1.298987e+42
1.410906e+42
1.502659e+42
1.611907e+42
1.264700e+42
1.445935e+42
1.733075e+42
1.711905e+42
1.700278e+42
1.712830e+42
1.834943e+42
1.782177e+42
2.076083e+42
1.801760e+42
1.623867e+42
1.454541e+42
1.055807e+42
1.056302e+42
1.087946e+42
1.287190e+42
1.321594e+42
1.546974e+42
1.183507e+42
1.154094e+42
1.346530e+42
1.343897e+42
1.473961e+42
1.532184e+42
1.591486e+42
1.518660e+42
1.456921e+42
1.330074e+42
1.330419e+42
1.334132e+42
1.554081e+42
1.991610e+42
1.879722e+42
1.960342e+42
1.932944e+42
1.544781e+42
1.355810e+42
1.288920e+42
1.268084e+42
1.294169e+42
9.846869e+41
5.990561e+41
8.880828e+41
7.612877e+41
7.523237e+41
7.600679e+41
7.776790e+41
7.268471e+41
8.969944e+41
1.330656e+42
1.293559e+42
1.336147e+42
1.005406e+42
9.959718e+41
1.135776e+42
1.192934e+42
1.608103e+42
1.576024e+42
1.586927e+42
1.270816e+42
1.469066e+42
1.364332e+42
1.483693e+42
1.482533e+42
1.633245e+42
1.887841e+42
1.619390e+42
1.662305e+42
1.555027e+42
1.428959e+42
1.348049e+42
1.351922e+42
1.236609e+42
1.245564e+42
1.295738e+42
1.048327e+42
1.104935e+42
1.115701e+42
1.067400e+42
1.198624e+42
9.845412e+41
1.379414e+42
1.405526e+42
1.560653e+42
1.397544e+42
1.573849e+42
1.433473e+42
1.383206e+42
1.369727e+42
1.583223e+42
2.298918e+42
2.010934e+42
2.093464e+42
2.011458e+42
1.771570e+42
1.541732e+42
1.464698e+42
1.449201e+42
1.639843e+42
1.819027e+42
1.104593e+42
1.150300e+42
1.048028e+42
9.815967e+41
1.230017e+42
1.309480e+42
1.424206e+42
1.509097e+42
1.613550e+42
1.291843e+42
1.461386e+42
1.729314e+42
1.709026e+42
1.700688e+42
1.722192e+42
1.844216e+42
1.790948e+42
2.084112e+42
1.799085e+42
1.606044e+42
1.451871e+42
1.065489e+42
1.065815e+42
1.101581e+42
1.300181e+42
1.334024e+42
1.547858e+42
1.194147e+42
1.169062e+42
1.381082e+42
1.376345e+42
1.489733e+42
1.542479e+42
1.596648e+42
1.527570e+42
1.469860e+42
1.354445e+42
1.348915e+42
1.354628e+42
1.541712e+42
1.995968e+42
1.897436e+42
1.974324e+42
1.945657e+42
1.547029e+42
1.352858e+42
1.260130e+42
1.253057e+42
1.403885e+42
1.073851e+42
6.327374e+41
6.036352e+41
5.068117e+41
4.360113e+41
4.541747e+41
4.681575e+41
5.546446e+41
5.930828e+41
9.940677e+41
1.064646e+42
1.286335e+42
1.263767e+42
1.229477e+42
1.497286e+42
1.494401e+42
1.749727e+42
1.590031e+42
1.720106e+42
1.266825e+42
1.520182e+42
1.287147e+42
1.378787e+42
1.381244e+42
1.547835e+42
1.761531e+42
1.589028e+42
1.678444e+42
1.579733e+42
1.489909e+42
1.354542e+42
1.339579e+42
1.247023e+42
1.270598e+42
1.216757e+42
1.051171e+42
1.119681e+42
1.064131e+42
1.043496e+42
1.234228e+42
9.503853e+41
1.337741e+42
1.366104e+42
1.468578e+42
1.269676e+42
1.528566e+42
1.470153e+42
1.445730e+42
1.399293e+42
1.590706e+42
2.242200e+42
1.930339e+42
2.060716e+42
2.044421e+42
1.862913e+42
1.558137e+42
1.458295e+42
1.447590e+42
1.672340e+42
1.752029e+42
1.103718e+42
1.206271e+42
1.063830e+42
9.743086e+41
1.247538e+42
1.304250e+42
1.388229e+42
1.456687e+42
1.569632e+42
1.331614e+42
1.491377e+42
1.755628e+42
1.738191e+42
1.720184e+42
1.675100e+42
1.853422e+42
1.847703e+42
2.139064e+42
1.806903e+42
1.627325e+42
1.547296e+42
1.109649e+42
1.110440e+42
1.206846e+42
1.450809e+42
1.346537e+42
1.452603e+42
1.119669e+42
1.100853e+42
1.194569e+42
1.111099e+42
1.266707e+42
1.308756e+42
1.321154e+42
1.239057e+42
1.305776e+42
1.313239e+42
1.300933e+42
1.304991e+42
1.629552e+42
2.014633e+42
1.876471e+42
1.913071e+42
2.354334e+42
2.220954e+42
2.015001e+42
1.812495e+42
1.810169e+42
1.821356e+42
1.636959e+42
1.282347e+42
1.260277e+42
1.313671e+42
7.645257e+41
5.409026e+41
5.305656e+41
6.163385e+41
6.679338e+41
1.283515e+42
1.082604e+42
1.204860e+42
1.205174e+42
1.072383e+42
1.279865e+42
1.288224e+42
1.652139e+42
1.573140e+42
1.684260e+42
1.170122e+42
1.431642e+42
1.280799e+42
1.394196e+42
1.396873e+42
1.567869e+42
1.803574e+42
1.580605e+42
1.642487e+42
1.542734e+42
1.441119e+42
1.318050e+42
1.314906e+42
1.214172e+42
1.221658e+42
1.273121e+42
1.057079e+42
1.114003e+42
1.102844e+42
1.056128e+42
1.176270e+42
9.456822e+41
1.406331e+42
1.417932e+42
1.543484e+42
1.330659e+42
1.524239e+42
1.395553e+42
1.371862e+42
1.378142e+42
1.692288e+42
2.327637e+42
1.951539e+42
2.066833e+42
1.986801e+42
1.767443e+42
1.643869e+42
1.591491e+42
1.562181e+42
1.770210e+42
1.736347e+42
1.115178e+42
1.173012e+42
1.081381e+42
1.081204e+42
1.420252e+42
1.361726e+42
1.453401e+42
1.537444e+42
1.609074e+42
1.422469e+42
1.581221e+42
1.879902e+42
1.831538e+42
1.777489e+42
1.642105e+42
1.854194e+42
1.840359e+42
2.109793e+42
1.825549e+42
1.673023e+42
1.566338e+42
1.135992e+42
1.135878e+42
1.228669e+42
1.478798e+42
1.370256e+42
1.496160e+42
1.153811e+42
1.130617e+42
1.188867e+42
1.125200e+42
1.261393e+42
1.298211e+42
1.336375e+42
1.301443e+42
1.327662e+42
1.274589e+42
1.259459e+42
1.384526e+42
1.261671e+42
1.579338e+42
1.457641e+42
1.521679e+42
1.674360e+42
1.752429e+42
1.560000e+42
1.415972e+42
1.417670e+42
1.327975e+42
1.677938e+42
1.453615e+42
1.441644e+42
1.444928e+42
1.177245e+42
6.834438e+41
6.897788e+41
7.919329e+41
8.581950e+41
1.367734e+42
1.159503e+42
1.289401e+42
1.274307e+42
1.170195e+42
1.406781e+42
1.420392e+42
1.682546e+42
1.557967e+42
1.678354e+42
1.230523e+42
1.499718e+42
1.291875e+42
1.367745e+42
1.375005e+42
1.497664e+42
1.734710e+42
1.557500e+42
1.660761e+42
1.587309e+42
1.516254e+42
1.306790e+42
1.291452e+42
1.220538e+42
1.236173e+42
1.208513e+42
1.044475e+42
1.183322e+42
1.150826e+42
1.067017e+42
1.189869e+42
9.750896e+41
1.365406e+42
1.401964e+42
1.556974e+42
1.458503e+42
1.605693e+42
1.440064e+42
1.390580e+42
1.382647e+42
1.617888e+42
2.329707e+42
2.007910e+42
1.989597e+42
2.036360e+42
1.786966e+42
1.775687e+42
1.718334e+42
1.731991e+42
1.852470e+42
1.906858e+42
1.219397e+42
1.349466e+42
1.361974e+42
1.199007e+42
1.575687e+42
1.402566e+42
1.499316e+42
1.573487e+42
1.685354e+42
1.422513e+42
1.582187e+42
1.811549e+42
1.775962e+42
1.723142e+42
1.595951e+42
1.783717e+42
1.762268e+42
1.993158e+42
1.754555e+42
1.630320e+42
1.531033e+42
1.108082e+42
1.107062e+42
1.164484e+42
1.242036e+42
1.053997e+42
1.184894e+42
8.463678e+41
8.381003e+41
9.647957e+41
8.875619e+41
1.029709e+42
1.179728e+42
1.680914e+42
1.359072e+42
1.432128e+42
1.210399e+42
1.213900e+42
1.233897e+42
1.054556e+42
1.414926e+42
1.343482e+42
1.394999e+42
1.157280e+42
1.729139e+42
1.600720e+42
1.603466e+42
1.597997e+42
1.637738e+42
1.870282e+42
1.543805e+42
1.469639e+42
1.368625e+42
1.043060e+42
4.908719e+41
4.925640e+41
5.840934e+41
6.543097e+41
1.177787e+42
1.051964e+42
1.190181e+42
1.185992e+42
1.085406e+42
1.310703e+42
1.319625e+42
1.656273e+42
1.564685e+42
1.671605e+42
1.198930e+42
1.452791e+42
1.277431e+42
1.399582e+42
1.400896e+42
1.583428e+42
1.814132e+42
1.609245e+42
1.674487e+42
1.562900e+42
1.454755e+42
1.365689e+42
1.359944e+42
1.244554e+42
1.258249e+42
1.274133e+42
1.063622e+42
1.096098e+42
1.065148e+42
1.048886e+42
1.218873e+42
9.425250e+41
1.376043e+42
1.391635e+42
1.496857e+42
1.259744e+42
1.512220e+42
1.445114e+42
1.422883e+42
1.395025e+42
1.645252e+42
2.290323e+42
1.900279e+42
1.923464e+42
2.074236e+42
1.890053e+42
1.791866e+42
1.707672e+42
1.720415e+42
1.864203e+42
1.826084e+42
1.224952e+42
1.416940e+42
1.394551e+42
1.174846e+42
1.533115e+42
1.380378e+42
1.463186e+42
1.528128e+42
1.656815e+42
1.476405e+42
1.596978e+42
1.754158e+42
1.732863e+42
1.691489e+42
1.567238e+42
1.774280e+42
1.782839e+42
1.997647e+42
1.715822e+42
1.548896e+42
1.478512e+42
1.092136e+42
1.090405e+42
1.137905e+42
1.241957e+42
1.023637e+42
1.122347e+42
8.177603e+41
8.102949e+41
9.553990e+41
8.707567e+41
1.016660e+42
1.179167e+42
1.677319e+42
1.336119e+42
1.430428e+42
1.231316e+42
1.264649e+42
1.281925e+42
1.129027e+42
1.585937e+42
1.978661e+42
1.826153e+42
1.276449e+42
1.272998e+42
1.758154e+42
1.755046e+42
2.000273e+42
2.410411e+42
2.382586e+42
1.915255e+42
2.227880e+42
2.231127e+42
2.703787e+42
2.723811e+42
2.230874e+42
2.235156e+42
2.604096e+42
2.194036e+42
2.259516e+42
2.308694e+42
2.706173e+42
2.792506e+42
2.523433e+42
2.504533e+42
2.543095e+42
2.871691e+42
2.248801e+42
2.281189e+42
2.225056e+42
2.736950e+42
4.104500e+42
4.043364e+42
4.071917e+42
4.121495e+42
4.105123e+42
4.101014e+42
4.331026e+42
4.493429e+42
4.566699e+42
4.849602e+42
4.291666e+42
4.321151e+42
4.109313e+42
4.060218e+42
3.996221e+42
4.379424e+42
4.447539e+42
4.335250e+42
4.348215e+42
4.451488e+42
2.500661e+42
2.553205e+42
2.619542e+42
2.667691e+42
2.917219e+42
2.914965e+42
2.914888e+42
2.899097e+42
2.802579e+42
4.420678e+42
4.391110e+42
4.323785e+42
4.345446e+42
4.379444e+42
4.181086e+42
3.905210e+42
4.518251e+42
4.573403e+42
4.797935e+42
3.728830e+42
3.651948e+42
3.636843e+42
3.538924e+42
3.456699e+42
3.520639e+42
4.026601e+42
3.109784e+42
3.080200e+42
2.956740e+42
2.533150e+42
2.546202e+42
2.743295e+42
2.749251e+42
2.950696e+42
3.022497e+42
2.092391e+42
2.113866e+42
2.043686e+42
2.251393e+42
4.711982e+42
4.703402e+42
5.073953e+42
5.054527e+42
4.890285e+42
5.155369e+42
5.637360e+42
5.840484e+42
5.922421e+42
6.466239e+42
4.838913e+42
4.935660e+42
4.365990e+42
4.364610e+42
4.455576e+42
4.311750e+42
4.146968e+42
4.116697e+42
4.325873e+42
3.484676e+42
3.979874e+42
3.950750e+42
3.965161e+42
4.269366e+42
4.156515e+42
4.050478e+42
4.231392e+42
4.274260e+42
4.005910e+42
4.154015e+42
3.363340e+42
3.356852e+42
3.838802e+42
3.536053e+42
3.526983e+42
3.343679e+42
3.791227e+42
3.542082e+42
3.587873e+42
3.558980e+42
3.656528e+42
3.606094e+42
3.185588e+42
3.182723e+42
3.374456e+42
3.722514e+42
2.857355e+42
2.974395e+42
2.862107e+42
3.200632e+42
4.084347e+42
4.089151e+42
4.145057e+42
4.164563e+42
4.056567e+42
3.855694e+42
3.986467e+42
4.028207e+42
4.027110e+42
6.693340e+42
4.174072e+42
4.177277e+42
4.216678e+42
4.198270e+42
4.623558e+42
5.865954e+42
5.951983e+42
5.782003e+42
6.230090e+42
4.341968e+42
4.317831e+42
4.295737e+42
4.093458e+42
4.193147e+42
3.921040e+42
2.855149e+42
2.684681e+42
2.855323e+42
2.419960e+42
3.391542e+42
3.357638e+42
3.356200e+42
3.530177e+42
3.503073e+42
3.333723e+42
3.170314e+42
3.701002e+42
3.754193e+42
3.997680e+42
3.121110e+42
3.108375e+42
3.214676e+42
3.035766e+42
2.978310e+42
3.130512e+42
3.728239e+42
3.127168e+42
3.127349e+42
3.096626e+42
3.062073e+42
3.067779e+42
3.178893e+42
3.220482e+42
3.498370e+42
3.694992e+42
2.880171e+42
2.905807e+42
2.703616e+42
2.789670e+42
5.114515e+42
5.108633e+42
5.359506e+42
5.318996e+42
5.036542e+42
5.076415e+42
5.479917e+42
5.642455e+42
5.717246e+42
6.172375e+42
4.245130e+42
4.396815e+42
3.979526e+42
3.978330e+42
4.095199e+42
4.009861e+42
3.838047e+42
3.760966e+42
4.063189e+42
3.332166e+42
4.093399e+42
4.030564e+42
4.031557e+42
4.292814e+42
4.173744e+42
3.918033e+42
4.237954e+42
4.528828e+42
4.178885e+42
4.389985e+42
3.755531e+42
3.758206e+42
4.276311e+42
4.021215e+42
4.022259e+42
3.976084e+42
4.177173e+42
3.730377e+42
3.800375e+42
3.656562e+42
3.321526e+42
3.284806e+42
2.874373e+42
2.868833e+42
3.059402e+42
3.398880e+42
2.663672e+42
2.743906e+42
2.630642e+42
3.034451e+42
4.174273e+42
4.142234e+42
4.139999e+42
4.153674e+42
4.036705e+42
3.860446e+42
4.009775e+42
4.087374e+42
4.082534e+42
6.575700e+42
3.979454e+42
4.009606e+42
4.013394e+42
3.999095e+42
4.458636e+42
5.674513e+42
5.732383e+42
5.553449e+42
6.088074e+42
4.478604e+42
4.508679e+42
4.471486e+42
4.312021e+42
4.415435e+42
4.150531e+42
3.179331e+42
3.089568e+42
3.213226e+42
2.706533e+42
3.394167e+42
3.323354e+42
3.312042e+42
3.507153e+42
3.419092e+42
3.294401e+42
3.014654e+42
3.300184e+42
3.511137e+42
3.605855e+42
3.196499e+42
3.189690e+42
3.343363e+42
3.139482e+42
3.130507e+42
3.197526e+42
3.997427e+42
3.546550e+42
3.364571e+42
3.442009e+42
3.180764e+42
3.178421e+42
3.199086e+42
3.229492e+42
3.542795e+42
3.701112e+42
2.902666e+42
2.886574e+42
2.750860e+42
2.759632e+42
5.150306e+42
5.159076e+42
5.313133e+42
5.283701e+42
5.008080e+42
5.260419e+42
5.633043e+42
5.906289e+42
5.996092e+42
6.603260e+42
4.598855e+42
4.742908e+42
4.470945e+42
4.469983e+42
4.558942e+42
4.277201e+42
3.953480e+42
3.824050e+42
4.138149e+42
3.361625e+42
4.021650e+42
3.943721e+42
3.949694e+42
4.235719e+42
4.113583e+42
3.884107e+42
4.218352e+42
4.502469e+42
4.134863e+42
4.353153e+42
3.724334e+42
3.725884e+42
4.275219e+42
4.003169e+42
3.997423e+42
3.966858e+42
4.203249e+42
3.800646e+42
3.884559e+42
3.763591e+42
3.559090e+42
3.517115e+42
3.036722e+42
3.022751e+42
3.213177e+42
3.571571e+42
2.835427e+42
2.917396e+42
2.855537e+42
5.154375e+42
3.761668e+42
3.728068e+42
3.654849e+42
3.654739e+42
3.902696e+42
4.146462e+42
4.236885e+42
4.130949e+42
4.157217e+42
5.251724e+42
5.033652e+42
5.281485e+42
5.241815e+42
5.252307e+42
5.262582e+42
5.656268e+42
5.593178e+42
5.608070e+42
6.008902e+42
3.584136e+42
3.584954e+42
3.335964e+42
3.311883e+42
3.386039e+42
3.100884e+42
2.300904e+42
2.250568e+42
2.451834e+42
1.962165e+42
2.811493e+42
2.801244e+42
2.804915e+42
3.160554e+42
3.125930e+42
3.152943e+42
3.051178e+42
3.355595e+42
3.603979e+42
3.814083e+42
3.776062e+42
3.775718e+42
3.928081e+42
3.573749e+42
3.546939e+42
3.675142e+42
4.683559e+42
4.318187e+42
3.971550e+42
3.958509e+42
3.549936e+42
3.552825e+42
3.511409e+42
3.519519e+42
3.741190e+42
3.758787e+42
2.769001e+42
2.776161e+42
2.658134e+42
2.592123e+42
4.564730e+42
4.563141e+42
4.840846e+42
4.831446e+42
4.625553e+42
4.863670e+42
5.143117e+42
5.342390e+42
5.497657e+42
6.272585e+42
4.665538e+42
4.803750e+42
4.482277e+42
4.483879e+42
4.619541e+42
4.474604e+42
4.305058e+42
4.286470e+42
4.510104e+42
3.621400e+42
4.234158e+42
4.186914e+42
4.165507e+42
4.389272e+42
4.217440e+42
3.870727e+42
4.094884e+42
4.311550e+42
3.966501e+42
4.312010e+42
3.174863e+42
3.146260e+42
3.654720e+42
3.449652e+42
3.447678e+42
3.502059e+42
3.811282e+42
3.448869e+42
3.609982e+42
3.407460e+42
3.749667e+42
3.720593e+42
3.292296e+42
3.271808e+42
3.442048e+42
3.693829e+42
2.927631e+42
2.994542e+42
2.891577e+42
4.959068e+42
3.441562e+42
3.416888e+42
3.332757e+42
3.332958e+42
3.603326e+42
3.843503e+42
3.912395e+42
3.798670e+42
3.832664e+42
5.216891e+42
5.057964e+42
5.290827e+42
5.271043e+42
5.283733e+42
5.306724e+42
5.782949e+42
5.765480e+42
5.783448e+42
6.125736e+42
3.566887e+42
3.557620e+42
3.316455e+42
3.290634e+42
3.369881e+42
3.073068e+42
2.248617e+42
2.151343e+42
2.231049e+42
1.776138e+42
2.686722e+42
2.696981e+42
2.699253e+42
2.940434e+42
2.868291e+42
2.898424e+42
2.884323e+42
3.355445e+42
3.644290e+42
3.835048e+42
3.858725e+42
3.842541e+42
3.990917e+42
3.753669e+42
3.770307e+42
3.913742e+42
4.826304e+42
4.335495e+42
4.121592e+42
4.187411e+42
3.861359e+42
3.867896e+42
3.827947e+42
3.841021e+42
4.106039e+42
4.178007e+42
3.250864e+42
3.258199e+42
3.087726e+42
2.957659e+42
4.813213e+42
4.808872e+42
5.049762e+42
5.034016e+42
4.765078e+42
4.923107e+42
5.155587e+42
5.340452e+42
5.498825e+42
6.291410e+42
4.660351e+42
4.792834e+42
4.501381e+42
4.501578e+42
4.639796e+42
4.514550e+42
4.357584e+42
4.363518e+42
4.552990e+42
3.640000e+42
4.138315e+42
4.086244e+42
4.077112e+42
4.301354e+42
4.131127e+42
3.760102e+42
3.917150e+42
4.077754e+42
3.776050e+42
4.162892e+42
3.135860e+42
3.118867e+42
3.637615e+42
3.440246e+42
3.441731e+42
3.534361e+42
3.938888e+42
3.603030e+42
3.737495e+42
3.494461e+42
3.811999e+42
3.773863e+42
3.322972e+42
3.295806e+42
3.445664e+42
3.650607e+42
2.821550e+42
2.892399e+42
2.802489e+42
4.864877e+42
3.335765e+42
3.319191e+42
3.236457e+42
3.236269e+42
3.546452e+42
3.838941e+42
3.923883e+42
3.817701e+42
3.859290e+42
5.268065e+42
5.124344e+42
5.342943e+42
5.332682e+42
5.334400e+42
5.517987e+42
5.641121e+42
5.634697e+42
5.634382e+42
5.958052e+42
3.492418e+42
3.491814e+42
3.264105e+42
3.239181e+42
3.359052e+42
2.900260e+42
2.375895e+42
2.252866e+42
2.370196e+42
1.937955e+42
2.708567e+42
2.714197e+42
2.720545e+42
2.971144e+42
2.867545e+42
2.866793e+42
2.842397e+42
3.299749e+42
3.585632e+42
3.765711e+42
3.757444e+42
3.734999e+42
3.899666e+42
3.652418e+42
3.672490e+42
3.827654e+42
4.724311e+42
4.265057e+42
4.054721e+42
4.140723e+42
3.880302e+42
3.888051e+42
3.836705e+42
3.851214e+42
4.140429e+42
4.229017e+42
3.359314e+42
3.364169e+42
3.174759e+42
3.034316e+42
4.950742e+42
4.947415e+42
5.172591e+42
5.154665e+42
4.859576e+42
5.002017e+42
5.237752e+42
5.436651e+42
5.589661e+42
6.353166e+42
4.653437e+42
4.785277e+42
4.501377e+42
4.499531e+42
4.632612e+42
4.488246e+42
4.316796e+42
4.299931e+42
4.495810e+42
3.603553e+42
4.114059e+42
4.055057e+42
4.046954e+42
4.279739e+42
4.115104e+42
3.759442e+42
3.920921e+42
4.079354e+42
3.777828e+42
4.168387e+42
3.169917e+42
3.161003e+42
3.665085e+42
3.459312e+42
3.460711e+42
3.553389e+42
3.973092e+42
3.659891e+42
3.621898e+42
4.891368e+42
3.519267e+42
3.452395e+42
2.996115e+42
2.989433e+42
3.618663e+42
4.420763e+42
3.575967e+42
3.525354e+42
3.517990e+42
3.873013e+42
4.097835e+42
4.264287e+42
4.191889e+42
4.191038e+42
3.808144e+42
3.129693e+42
3.099764e+42
3.099506e+42
3.173044e+42
4.242214e+42
3.983734e+42
4.157408e+42
4.142489e+42
4.123337e+42
4.387403e+42
4.706738e+42
4.738871e+42
4.754824e+42
5.186241e+42
3.243921e+42
3.247385e+42
2.927253e+42
2.938075e+42
3.143053e+42
2.864907e+42
2.531135e+42
2.471360e+42
2.639316e+42
2.196182e+42
3.282564e+42
3.285082e+42
3.267174e+42
3.513159e+42
3.364164e+42
3.282654e+42
3.569898e+42
4.120824e+42
4.390942e+42
4.533796e+42
4.134868e+42
4.128424e+42
4.229930e+42
3.960265e+42
3.908294e+42
4.022576e+42
4.622436e+42
4.068707e+42
3.734809e+42
3.728280e+42
3.364519e+42
3.365297e+42
3.395105e+42
3.431831e+42
3.612032e+42
4.048196e+42
2.989268e+42
3.023081e+42
2.994979e+42
2.883878e+42
5.682675e+42
5.684655e+42
5.737601e+42
5.698240e+42
5.619817e+42
5.252510e+42
6.089841e+42
6.321379e+42
6.241051e+42
7.352309e+42
4.751974e+42
4.764889e+42
4.683643e+42
4.710616e+42
4.855582e+42
4.722027e+42
4.202569e+42
3.993463e+42
4.211785e+42
3.088324e+42
3.179416e+42
3.276067e+42
3.410623e+42
3.562606e+42
3.371100e+42
3.188900e+42
3.446307e+42
3.556657e+42
3.346636e+42
3.911239e+42
3.483949e+42
3.512825e+42
4.130088e+42
3.952883e+42
3.908634e+42
3.948870e+42
4.555460e+42
4.488686e+42
4.469728e+42
5.948690e+42
4.600266e+42
4.467603e+42
3.620397e+42
3.659677e+42
4.731348e+42
5.477945e+42
4.367512e+42
4.288605e+42
4.288430e+42
4.989631e+42
5.202860e+42
5.230284e+42
5.305136e+42
5.263929e+42
4.635238e+42
4.013273e+42
3.990858e+42
3.972867e+42
4.006197e+42
3.760928e+42
3.585662e+42
4.146996e+42
4.090732e+42
4.144124e+42
3.976192e+42
4.493766e+42
4.344752e+42
4.335297e+42
5.045744e+42
3.336212e+42
3.359856e+42
2.816242e+42
2.789441e+42
3.050571e+42
2.885095e+42
2.712905e+42
2.713425e+42
2.741974e+42
2.094073e+42
2.884813e+42
2.824008e+42
2.799812e+42
2.887073e+42
2.664932e+42
2.580900e+42
2.611114e+42
3.023334e+42
3.235207e+42
3.543194e+42
3.452029e+42
3.465744e+42
3.743959e+42
3.672108e+42
3.639646e+42
3.715737e+42
4.554446e+42
4.198759e+42
3.994405e+42
3.891791e+42
3.364685e+42
3.367491e+42
3.331834e+42
3.315016e+42
3.670044e+42
3.724621e+42
2.650891e+42
2.597127e+42
2.561468e+42
2.589976e+42
4.660444e+42
4.677454e+42
4.866064e+42
4.879074e+42
4.464111e+42
5.255309e+42
5.445011e+42
5.968583e+42
6.238130e+42
6.628408e+42
5.977950e+42
6.184019e+42
5.730268e+42
5.734211e+42
5.764468e+42
5.261061e+42
4.837721e+42
4.577287e+42
4.877535e+42
4.159552e+42
4.374586e+42
4.174682e+42
4.167672e+42
4.747294e+42
4.725756e+42
4.468989e+42
4.552228e+42
4.584471e+42
4.047439e+42
5.956977e+42
3.379479e+42
3.383867e+42
3.390927e+42
2.799404e+42
2.834057e+42
3.516108e+42
4.188767e+42
3.942371e+42
4.132814e+42
3.674802e+42
3.605874e+42
3.760946e+42
3.803294e+42
3.806753e+42
4.085418e+42
4.053877e+42
3.226914e+42
3.175202e+42
3.269728e+42
2.760449e+42
3.089940e+42
3.128408e+42
3.087729e+42
3.265297e+42
3.125856e+42
2.668074e+42
2.653027e+42
2.652682e+42
2.361786e+42
5.023048e+42
4.800466e+42
5.062755e+42
5.088106e+42
4.920436e+42
5.242530e+42
5.030932e+42
5.076519e+42
5.236669e+42
5.645322e+42
3.685243e+42
3.547607e+42
3.043497e+42
3.141713e+42
3.296177e+42
3.436352e+42
3.569566e+42
3.687949e+42
3.730940e+42
3.299911e+42
4.468272e+42
4.479977e+42
4.543595e+42
4.648544e+42
4.480422e+42
4.040233e+42
3.915029e+42
4.666866e+42
4.986862e+42
5.054824e+42
4.347432e+42
4.398319e+42
4.455760e+42
4.272322e+42
4.266256e+42
4.476495e+42
5.016674e+42
4.094055e+42
3.880391e+42
3.931607e+42
3.786848e+42
3.729140e+42
3.621938e+42
3.758810e+42
3.773834e+42
3.982613e+42
3.484469e+42
3.591521e+42
3.359683e+42
3.323487e+42
5.404639e+42
5.424279e+42
5.700138e+42
5.511861e+42
5.571983e+42
5.151605e+42
5.582763e+42
5.636944e+42
5.585411e+42
6.672207e+42
4.176905e+42
4.188729e+42
4.053653e+42
4.066657e+42
4.267241e+42
4.264633e+42
4.001241e+42
3.898545e+42
4.095583e+42
2.988864e+42
3.347235e+42
3.324134e+42
3.235199e+42
3.410442e+42
3.262476e+42
3.076925e+42
3.153737e+42
3.158261e+42
2.945332e+42
5.581685e+42
3.675228e+42
3.861097e+42
3.877660e+42
3.711543e+42
3.884520e+42
4.302201e+42
5.259660e+42
5.521620e+42
5.571315e+42
5.499105e+42
5.522646e+42
5.325415e+42
5.245368e+42
5.233282e+42
5.747221e+42
5.687102e+42
4.276853e+42
3.979015e+42
3.939465e+42
2.635866e+42
2.677244e+42
2.712512e+42
2.825444e+42
2.818738e+42
2.453637e+42
2.162391e+42
2.166649e+42
2.217640e+42
2.253685e+42
3.335534e+42
3.274433e+42
4.073843e+42
3.964838e+42
4.023456e+42
3.809873e+42
4.287982e+42
4.260815e+42
4.192837e+42
4.965416e+42
3.437596e+42
3.477404e+42
2.728913e+42
2.723435e+42
3.081732e+42
3.033630e+42
3.115484e+42
3.121451e+42
3.138345e+42
2.421115e+42
3.370551e+42
3.347923e+42
3.261358e+42
3.296715e+42
2.915073e+42
2.744048e+42
2.624460e+42
3.052403e+42
3.200907e+42
3.371305e+42
2.816526e+42
2.794980e+42
3.243566e+42
3.209172e+42
3.251061e+42
3.342785e+42
4.083236e+42
3.766918e+42
3.687082e+42
3.868608e+42
3.906582e+42
3.958965e+42
3.669682e+42
3.691414e+42
3.804266e+42
3.969786e+42
3.372116e+42
3.254820e+42
3.161129e+42
3.016758e+42
4.591845e+42
4.553774e+42
5.049424e+42
5.051249e+42
4.895606e+42
5.266304e+42
4.752829e+42
5.102244e+42
5.296662e+42
5.514506e+42
4.941371e+42
5.136889e+42
4.479537e+42
4.474310e+42
4.492866e+42
4.480259e+42
4.491964e+42
4.477356e+42
4.840707e+42
4.301139e+42
4.832598e+42
4.646770e+42
4.647260e+42
5.182710e+42
5.128977e+42
4.683396e+42
4.676944e+42
4.621048e+42
4.102591e+42
6.052891e+42
3.300414e+42
3.312779e+42
3.311734e+42
2.777544e+42
2.844380e+42
3.637211e+42
4.369395e+42
4.141085e+42
4.358000e+42
4.115686e+42
4.035995e+42
4.047990e+42
4.112976e+42
4.118020e+42
4.390639e+42
4.202073e+42
3.338448e+42
3.298240e+42
3.249909e+42
2.284518e+42
2.565543e+42
2.752848e+42
2.689436e+42
2.798271e+42
2.596655e+42
2.154450e+42
2.141117e+42
2.131491e+42
1.953232e+42
4.828712e+42
4.660560e+42
4.925637e+42
4.959911e+42
4.839172e+42
5.259049e+42
5.132931e+42
5.198279e+42
5.333525e+42
5.725672e+42
3.770601e+42
3.641633e+42
3.142047e+42
3.214311e+42
3.296974e+42
3.664367e+42
3.536476e+42
3.662603e+42
3.611028e+42
3.187748e+42
4.545043e+42
4.548176e+42
4.598323e+42
4.798735e+42
4.701822e+42
3.987690e+42
4.046647e+42
4.634095e+42
5.171000e+42
5.253986e+42
4.289582e+42
4.375582e+42
4.487454e+42
4.251727e+42
4.251604e+42
4.433683e+42
4.952493e+42
4.163944e+42
3.887548e+42
3.932834e+42
3.832777e+42
3.751900e+42
3.606563e+42
3.731441e+42
3.749517e+42
3.957911e+42
3.507848e+42
3.602297e+42
3.340610e+42
3.297473e+42
5.339464e+42
5.367853e+42
5.670094e+42
5.477140e+42
5.546934e+42
5.151384e+42
5.599395e+42
5.649404e+42
5.604794e+42
6.780220e+42
4.437688e+42
4.429449e+42
4.247803e+42
4.260374e+42
4.459051e+42
4.468509e+42
4.255278e+42
4.166229e+42
4.144081e+42
4.144957e+42
2.553513e+42
2.588097e+42
2.620305e+42
2.701490e+42
2.967512e+42
2.966836e+42
2.954233e+42
2.902428e+42
2.929924e+42
4.799328e+42
4.758067e+42
4.725637e+42
4.834195e+42
4.738061e+42
4.408227e+42
4.408072e+42
4.975208e+42
5.435740e+42
5.440425e+42
4.570756e+42
4.657559e+42
4.635168e+42
4.372745e+42
4.385115e+42
4.798204e+42
4.791255e+42
3.779249e+42
3.393009e+42
3.377523e+42
2.356032e+42
2.266782e+42
2.370605e+42
2.571273e+42
2.583926e+42
2.438414e+42
2.294137e+42
2.302504e+42
2.378926e+42
2.470764e+42
3.921333e+42
3.912469e+42
4.644171e+42
4.427122e+42
4.515374e+42
4.368450e+42
5.015355e+42
5.007116e+42
4.854634e+42
5.582103e+42
3.885665e+42
3.960090e+42
3.156730e+42
3.158816e+42
3.309918e+42
3.306757e+42
2.908196e+42
2.933237e+42
2.931636e+42
2.129719e+42
2.985037e+42
2.922825e+42
2.894916e+42
2.971289e+42
2.771476e+42
2.446240e+42
2.528899e+42
2.781986e+42
3.073038e+42
3.398263e+42
2.864131e+42
2.840734e+42
3.345315e+42
3.266706e+42
3.310411e+42
3.433920e+42
4.354327e+42
4.185374e+42
3.975389e+42
4.036938e+42
3.978654e+42
4.026378e+42
3.663505e+42
3.678810e+42
3.726182e+42
3.807838e+42
3.052924e+42
2.943762e+42
2.860477e+42
2.753873e+42
4.312283e+42
4.269697e+42
4.891983e+42
4.884648e+42
4.792791e+42
5.292824e+42
4.895312e+42
5.252724e+42
5.474113e+42
5.756479e+42
5.438834e+42
5.589341e+42
4.812688e+42
4.815132e+42
4.796829e+42
4.710959e+42
4.726086e+42
4.711370e+42
4.657747e+42
4.708660e+42
2.498263e+42
2.344265e+42
2.811008e+42
3.205577e+42
3.386589e+42
3.373725e+42
3.323949e+42
3.019383e+42
3.168215e+42
4.856839e+42
4.608186e+42
4.609717e+42
4.184870e+42
3.832401e+42
3.640947e+42
3.670753e+42
4.108256e+42
4.179810e+42
4.091430e+42
3.092335e+42
3.056718e+42
3.208649e+42
3.194092e+42
3.162628e+42
3.363036e+42
3.147753e+42
2.594624e+42
2.546285e+42
2.556283e+42
1.681629e+42
1.864299e+42
1.993565e+42
1.975275e+42
2.165325e+42
2.161391e+42
2.133864e+42
2.141137e+42
2.091298e+42
2.206669e+42
4.668596e+42
4.552632e+42
4.570048e+42
4.624069e+42
4.429357e+42
5.148220e+42
5.044721e+42
5.070574e+42
5.296421e+42
5.485202e+42
4.318956e+42
4.248810e+42
3.948385e+42
3.972097e+42
4.024251e+42
3.888049e+42
3.654326e+42
3.813503e+42
3.634366e+42
3.098135e+42
3.953983e+42
3.979502e+42
4.002623e+42
4.250681e+42
4.183219e+42
3.520454e+42
3.541822e+42
3.956934e+42
4.671927e+42
4.787451e+42
4.302105e+42
4.370544e+42
4.530086e+42
4.291765e+42
4.293668e+42
4.608788e+42
5.292248e+42
4.667842e+42
4.207699e+42
4.200510e+42
3.998964e+42
3.913250e+42
3.741046e+42
3.810505e+42
3.815389e+42
3.882204e+42
3.289267e+42
3.359968e+42
3.150017e+42
3.132062e+42
5.194252e+42
5.231017e+42
5.577849e+42
5.428095e+42
5.542462e+42
5.264270e+42
5.827708e+42
5.897976e+42
5.807121e+42
9.785750e+42
5.818621e+42
5.773668e+42
5.533539e+42
5.603917e+42
6.290779e+42
6.610536e+42
6.472103e+42
6.381567e+42
6.552128e+42
3.724318e+42
3.685192e+42
3.685157e+42
3.600622e+42
3.708414e+42
3.424055e+42
2.959823e+42
2.578456e+42
2.584480e+42
2.481168e+42
4.219927e+42
4.293700e+42
4.295649e+42
4.629121e+42
4.438111e+42
4.055443e+42
4.049171e+42
4.551755e+42
5.121142e+42
5.104850e+42
4.167826e+42
4.323034e+42
4.396282e+42
4.124783e+42
4.121267e+42
4.697576e+42
4.717661e+42
3.993925e+42
3.828197e+42
3.879467e+42
3.100741e+42
2.916167e+42
2.887443e+42
2.978676e+42
3.048599e+42
3.125444e+42
3.216068e+42
3.263605e+42
2.919004e+42
2.954897e+42
4.628035e+42
4.616424e+42
5.296742e+42
5.113528e+42
5.133122e+42
4.649289e+42
5.098994e+42
5.045925e+42
4.934328e+42
5.603668e+42
3.556446e+42
3.576072e+42
2.915981e+42
2.911457e+42
3.113408e+42
3.144271e+42
2.754822e+42
2.764095e+42
2.760581e+42
2.030062e+42
3.086793e+42
3.060138e+42
3.009579e+42
3.116259e+42
2.932905e+42
2.630728e+42
2.837757e+42
3.164796e+42
3.439076e+42
3.750306e+42
3.212186e+42
3.185353e+42
3.589660e+42
3.486804e+42
3.448845e+42
3.517423e+42
4.316865e+42
4.073742e+42
3.857974e+42
3.819177e+42
3.496261e+42
3.515783e+42
3.311079e+42
3.336139e+42
3.438194e+42
3.541940e+42
2.776836e+42
2.684899e+42
2.629177e+42
2.681733e+42
4.636450e+42
4.632637e+42
5.133228e+42
5.115647e+42
5.018641e+42
5.576573e+42
5.259943e+42
5.639554e+42
5.650130e+42
7.831302e+42
4.962385e+42
5.027969e+42
4.743619e+42
4.732492e+42
5.047532e+42
5.472560e+42
5.541068e+42
5.160214e+42
5.476498e+42
4.133278e+42
4.110949e+42
4.172808e+42
3.980484e+42
4.377921e+42
4.123208e+42
3.366065e+42
3.176941e+42
3.205954e+42
3.155070e+42
3.971425e+42
3.819813e+42
3.719578e+42
3.577790e+42
3.247873e+42
3.131435e+42
3.137976e+42
3.393307e+42
3.627601e+42
3.712550e+42
3.113287e+42
3.119449e+42
3.336576e+42
3.238929e+42
3.259457e+42
3.588176e+42
3.625249e+42
3.312756e+42
3.159152e+42
3.140883e+42
2.306234e+42
2.551840e+42
2.552091e+42
2.567436e+42
2.773519e+42
2.767571e+42
2.825789e+42
2.807097e+42
2.703636e+42
2.726440e+42
5.293332e+42
5.063513e+42
4.983454e+42
4.986496e+42
4.694525e+42
5.231105e+42
5.019797e+42
5.096337e+42
5.239319e+42
5.241424e+42
3.495068e+42
3.484123e+42
3.302765e+42
3.383622e+42
3.436406e+42
3.242862e+42
2.941416e+42
2.968882e+42
2.955507e+42
2.585377e+42
4.007953e+42
4.012526e+42
4.032821e+42
4.339933e+42
4.287356e+42
3.850651e+42
3.997061e+42
4.672917e+42
5.176904e+42
5.272803e+42
4.550841e+42
4.605629e+42
4.716974e+42
4.365436e+42
4.364118e+42
4.467186e+42
4.943400e+42
4.159792e+42
3.840820e+42
3.898323e+42
3.112986e+42
3.046314e+42
2.958181e+42
3.304752e+42
3.335754e+42
3.474373e+42
2.966954e+42
3.038135e+42
2.789758e+42
2.713721e+42
5.434742e+42
5.442074e+42
5.615233e+42
5.225396e+42
5.194482e+42
5.394107e+42
6.000485e+42
5.985084e+42
5.931009e+42
9.325260e+42
5.238337e+42
5.223361e+42
5.188111e+42
5.316442e+42
6.094646e+42
6.092464e+42
6.114992e+42
6.102352e+42
6.136617e+42
4.673301e+42
4.685936e+42
4.686813e+42
4.565195e+42
4.521735e+42
4.167606e+42
3.633752e+42
3.240772e+42
3.201952e+42
3.188422e+42
4.162175e+42
4.196868e+42
4.207475e+42
4.480406e+42
4.387137e+42
4.122938e+42
4.100002e+42
4.476832e+42
5.098746e+42
5.145955e+42
4.371509e+42
4.497977e+42
4.539297e+42
4.293115e+42
4.289763e+42
4.916080e+42
4.948158e+42
4.207250e+42
3.993786e+42
3.965512e+42
3.333063e+42
3.207324e+42
3.536575e+42
3.468467e+42
3.521083e+42
4.105873e+42
4.679816e+42
4.758140e+42
4.966594e+42
5.366751e+42
5.560392e+42
5.596472e+42
5.585490e+42
5.692058e+42
6.110150e+42
5.010089e+42
4.323454e+42
4.370078e+42
3.853011e+42
4.230946e+42
3.568297e+42
3.574462e+42
3.727114e+42
3.620734e+42
3.155258e+42
2.885771e+42
2.963958e+42
3.311305e+42
3.205040e+42
2.625454e+42
2.537120e+42
2.468500e+42
1.948661e+42
2.005714e+42
2.001658e+42
2.344071e+42
2.666479e+42
2.377434e+42
2.376829e+42
2.158840e+42
2.685247e+42
3.171605e+42
3.299265e+42
3.265947e+42
3.809851e+42
3.605001e+42
4.222449e+42
4.048591e+42
4.050983e+42
4.761097e+42
5.720559e+42
5.947051e+42
6.882431e+42
6.881420e+42
6.507182e+42
7.424502e+42
7.552341e+42
7.574783e+42
7.764988e+42
1.075873e+43
8.316823e+42
7.654219e+42
6.590133e+42
6.634854e+42
7.741996e+42
7.959704e+42
6.765080e+42
6.796919e+42
6.945962e+42
4.488170e+42
4.497323e+42
4.525497e+42
4.526720e+42
4.593004e+42
3.542314e+42
2.379587e+42
2.378423e+42
2.401834e+42
2.379484e+42
2.413729e+42
2.404765e+42
3.131601e+42
3.399358e+42
3.251832e+42
3.067472e+42
3.658815e+42
3.660102e+42
3.612944e+42
3.345267e+42
2.671787e+42
2.636006e+42
1.805375e+42
1.621032e+42
1.618776e+42
2.065543e+42
1.825956e+42
1.916854e+42
1.929497e+42
2.068877e+42
3.486007e+42
3.771434e+42
3.807683e+42
3.987864e+42
4.212992e+42
4.144749e+42
5.516475e+42
5.534121e+42
5.727896e+42
6.828974e+42
7.150233e+42
7.432682e+42
8.436122e+42
8.180842e+42
8.049714e+42
8.578011e+42
7.967211e+42
7.868080e+42
7.988556e+42
7.510480e+42
6.891158e+42
6.337230e+42
5.404869e+42
5.843897e+42
5.963481e+42
5.721274e+42
4.515069e+42
4.561845e+42
4.201321e+42
3.934753e+42
4.088697e+42
4.387711e+42
4.778075e+42
4.326951e+42
4.120419e+42
3.601016e+42
3.596935e+42
4.384225e+42
4.476088e+42
3.967548e+42
3.593564e+42
3.524277e+42
3.082073e+42
3.084309e+42
3.276761e+42
3.670024e+42
3.744915e+42
3.394349e+42
3.362976e+42
3.345169e+42
3.975533e+42
3.831450e+42
3.787568e+42
3.802327e+42
3.828181e+42
3.742956e+42
4.256562e+42
3.978756e+42
3.952725e+42
4.280418e+42
5.789249e+42
6.052652e+42
6.464011e+42
6.622250e+42
6.395156e+42
7.533891e+42
7.537731e+42
7.330695e+42
7.732378e+42
9.845410e+42
6.363614e+42
5.985354e+42
5.587549e+42
5.822223e+42
6.720366e+42
6.227333e+42
5.753176e+42
6.309790e+42
6.039132e+42
5.747331e+42
5.546488e+42
5.534945e+42
5.535314e+42
5.126261e+42
4.771520e+42
3.635755e+42
3.644589e+42
3.095467e+42
2.943778e+42
2.698908e+42
3.027677e+42
3.402842e+42
3.429840e+42
3.573230e+42
3.034846e+42
3.324251e+42
3.277310e+42
3.268127e+42
3.233835e+42
2.637499e+42
2.473235e+42
2.244179e+42
2.191708e+42
2.108807e+42
3.124807e+42
3.017358e+42
3.343339e+42
3.571575e+42
3.578252e+42
5.047056e+42
4.934742e+42
4.796138e+42
5.456453e+42
5.419030e+42
5.230283e+42
6.076718e+42
5.995958e+42
6.465245e+42
7.240340e+42
7.915372e+42
8.110154e+42
8.617063e+42
8.126581e+42
8.102810e+42
8.931177e+42
8.590920e+42
8.298964e+42
8.357497e+42
7.926319e+42
6.686853e+42
6.467232e+42
6.479392e+42
6.380419e+42
6.850309e+42
5.524427e+42
4.871194e+42
5.106278e+42
4.348762e+42
5.274877e+42
4.384996e+42
4.420453e+42
4.925877e+42
4.915603e+42
4.494817e+42
4.185025e+42
4.318253e+42
4.437663e+42
4.432086e+42
3.363124e+42
2.815953e+42
2.825988e+42
1.804567e+42
1.850456e+42
1.825654e+42
1.984664e+42
2.099017e+42
1.816643e+42
1.819940e+42
1.651184e+42
2.333559e+42
2.696075e+42
2.864091e+42
2.777375e+42
3.410607e+42
3.424465e+42
4.368548e+42
4.278464e+42
4.415148e+42
7.452534e+42
6.230434e+42
6.899002e+42
6.803841e+42
6.783075e+42
6.671108e+42
8.272696e+42
8.168188e+42
8.413700e+42
8.809020e+42
9.741101e+42
9.487457e+42
8.386370e+42
8.426170e+42
8.615251e+42
9.213669e+42
8.285248e+42
7.190137e+42
7.098286e+42
6.931390e+42
4.036408e+42
4.052182e+42
4.249271e+42
4.126063e+42
4.074716e+42
3.068008e+42
2.229112e+42
2.215451e+42
2.083552e+42
2.046206e+42
2.107250e+42
2.237421e+42
3.184150e+42
3.323505e+42
3.186896e+42
3.076909e+42
3.711539e+42
3.694914e+42
3.653149e+42
3.454405e+42
3.132512e+42
2.992521e+42
1.847789e+42
1.782601e+42
1.797414e+42
2.390871e+42
2.334637e+42
2.478162e+42
2.512985e+42
2.559588e+42
3.820828e+42
4.172959e+42
4.188948e+42
4.273180e+42
4.639698e+42
4.162426e+42
5.459213e+42
5.554478e+42
5.704784e+42
6.914835e+42
7.311338e+42
7.495728e+42
8.682718e+42
8.557808e+42
8.273351e+42
8.943730e+42
8.036375e+42
7.836665e+42
8.086979e+42
7.517539e+42
6.673935e+42
6.198302e+42
5.148369e+42
5.642672e+42
5.790482e+42
5.721958e+42
4.737349e+42
4.751781e+42
4.325342e+42
4.055172e+42
4.313920e+42
4.555180e+42
4.834057e+42
4.307891e+42
4.090766e+42
3.489876e+42
3.479007e+42
4.227174e+42
4.312140e+42
3.786440e+42
3.215165e+42
3.267561e+42
2.854201e+42
2.853196e+42
2.982829e+42
3.458899e+42
3.534639e+42
3.170874e+42
3.194710e+42
3.173338e+42
4.267418e+42
4.095765e+42
4.077680e+42
4.086751e+42
4.150411e+42
4.061512e+42
4.658000e+42
4.469153e+42
4.359284e+42
6.347511e+42
4.454792e+42
4.777619e+42
4.774629e+42
4.859024e+42
4.826430e+42
6.910849e+42
6.765852e+42
6.580833e+42
7.681701e+42
8.689018e+42
8.262247e+42
7.864528e+42
7.867500e+42
8.296214e+42
8.885158e+42
7.077030e+42
6.581848e+42
7.200624e+42
6.227343e+42
4.930992e+42
4.861484e+42
4.777638e+42
4.844486e+42
4.322143e+42
3.947041e+42
3.148904e+42
3.146888e+42
2.461730e+42
2.387500e+42
2.597572e+42
2.953485e+42
3.456003e+42
3.398455e+42
3.482511e+42
3.096103e+42
3.374530e+42
3.409792e+42
3.435313e+42
3.367286e+42
2.918541e+42
2.649735e+42
2.240025e+42
2.227915e+42
2.172454e+42
3.359124e+42
3.321831e+42
3.733989e+42
3.951047e+42
3.964099e+42
5.587804e+42
5.554150e+42
5.461758e+42
5.893169e+42
5.949861e+42
5.176712e+42
6.067584e+42
6.212382e+42
6.487809e+42
7.197380e+42
7.473327e+42
7.529493e+42
8.201423e+42
8.017312e+42
7.932405e+42
8.943921e+42
8.270851e+42
7.647075e+42
8.120057e+42
7.819334e+42
6.761183e+42
6.625475e+42
6.487537e+42
6.330463e+42
6.857101e+42
5.801589e+42
5.400422e+42
5.618783e+42
4.647165e+42
5.360899e+42
4.296899e+42
4.342031e+42
4.780036e+42
4.779149e+42
4.272978e+42
3.891366e+42
3.937693e+42
3.981831e+42
3.964462e+42
3.219993e+42
2.708703e+42
2.810776e+42
1.839382e+42
1.844760e+42
1.843792e+42
2.072882e+42
2.337437e+42
2.229816e+42
2.230410e+42
1.899756e+42
2.872413e+42
3.244150e+42
3.342703e+42
3.272291e+42
3.922710e+42
3.905319e+42
4.809848e+42
4.685107e+42
4.832158e+42
7.842098e+42
6.398196e+42
6.934144e+42
6.892664e+42
6.868567e+42
6.770500e+42
8.402404e+42
8.254588e+42
8.505156e+42
8.914402e+42
9.960179e+42
9.707538e+42
8.620395e+42
8.638461e+42
8.813485e+42
9.583832e+42
8.229994e+42
7.118895e+42
7.036853e+42
7.086053e+42
4.132608e+42
4.126936e+42
4.430015e+42
4.321157e+42
4.223948e+42
2.921158e+42
2.542375e+42
2.639385e+42
2.548128e+42
2.073734e+42
1.974423e+42
2.053136e+42
2.627711e+42
2.806048e+42
2.731334e+42
2.701518e+42
3.345803e+42
3.225902e+42
3.122442e+42
3.142467e+42
2.975933e+42
2.904615e+42
2.028497e+42
1.916757e+42
1.929456e+42
2.529535e+42
2.372575e+42
2.513395e+42
2.544271e+42
2.560200e+42
3.709798e+42
4.042641e+42
4.061260e+42
4.151785e+42
4.491400e+42
4.005055e+42
5.201490e+42
5.263196e+42
5.439487e+42
6.670066e+42
7.048178e+42
7.199428e+42
8.482494e+42
8.378661e+42
8.145102e+42
8.891040e+42
8.098620e+42
7.946267e+42
8.227660e+42
7.743105e+42
7.095898e+42
6.650432e+42
5.478810e+42
5.931065e+42
6.059516e+42
5.985399e+42
4.986832e+42
4.969155e+42
4.481005e+42
4.066781e+42
4.144845e+42
4.416597e+42
4.717268e+42
4.215434e+42
4.007127e+42
3.327359e+42
3.320678e+42
3.975313e+42
4.013050e+42
3.616634e+42
3.055145e+42
3.250931e+42
2.827643e+42
2.823660e+42
2.956350e+42
3.495144e+42
3.609569e+42
3.383409e+42
3.339303e+42
3.973575e+42
2.937402e+42
2.825444e+42
3.219108e+42
3.219423e+42
3.867573e+42
4.516638e+42
5.010474e+42
4.708279e+42
4.891833e+42
6.406171e+42
6.374596e+42
6.159397e+42
5.785505e+42
5.888640e+42
5.195168e+42
6.109441e+42
5.860653e+42
5.832354e+42
6.857369e+42
7.463917e+42
7.300616e+42
7.341150e+42
7.337339e+42
7.810617e+42
8.395331e+42
6.813388e+42
6.458088e+42
7.202021e+42
6.184984e+42
4.986148e+42
5.023802e+42
4.893160e+42
5.020478e+42
4.458479e+42
4.112631e+42
3.479866e+42
3.491970e+42
2.631274e+42
2.501754e+42
2.994192e+42
3.135668e+42
3.470706e+42
3.319576e+42
3.316593e+42
3.056378e+42
3.518851e+42
3.610703e+42
3.626674e+42
3.575176e+42
3.084704e+42
2.927609e+42
2.683005e+42
2.682926e+42
2.724257e+42
3.702899e+42
3.454748e+42
3.831334e+42
4.000475e+42
3.989253e+42
5.055006e+42
5.013861e+42
4.834615e+42
5.342369e+42
5.382274e+42
4.671279e+42
5.435681e+42
5.411651e+42
5.922115e+42
6.834144e+42
7.737806e+42
7.874459e+42
8.611155e+42
8.412119e+42
8.333601e+42
9.647323e+42
9.284588e+42
8.842210e+42
9.048770e+42
8.556244e+42
7.318010e+42
7.150208e+42
6.859930e+42
6.599268e+42
7.008337e+42
5.633653e+42
5.067089e+42
5.274716e+42
4.386658e+42
5.011651e+42
3.739597e+42
3.841379e+42
4.510849e+42
4.520074e+42
4.128168e+42
3.818396e+42
3.872942e+42
3.880937e+42
3.851767e+42
3.266368e+42
2.970805e+42
2.995017e+42
1.894072e+42
1.940909e+42
1.931774e+42
2.175925e+42
2.477833e+42
2.398271e+42
2.477844e+42
3.233449e+42
2.428410e+42
3.010774e+42
3.069041e+42
3.032536e+42
4.499189e+42
4.954711e+42
5.639271e+42
5.484697e+42
5.448371e+42
7.755246e+42
7.798324e+42
7.672813e+42
7.777782e+42
7.708436e+42
6.672611e+42
7.516334e+42
7.329367e+42
7.679398e+42
8.179009e+42
8.413829e+42
8.354504e+42
7.795079e+42
7.818393e+42
8.022816e+42
8.755527e+42
7.516166e+42
6.609889e+42
6.632139e+42
6.875730e+42
4.339579e+42
4.336179e+42
4.748585e+42
4.557879e+42
4.521257e+42
3.412608e+42
3.228701e+42
3.383056e+42
3.069940e+42
2.511949e+42
2.554591e+42
2.600301e+42
3.004545e+42
3.129844e+42
2.981988e+42
2.904589e+42
3.712957e+42
3.558269e+42
3.510883e+42
3.459403e+42
3.218244e+42
3.169994e+42
2.342299e+42
2.328952e+42
2.311151e+42
2.884984e+42
2.581684e+42
2.772162e+42
2.769207e+42
2.679033e+42
3.379306e+42
3.619628e+42
3.636168e+42
3.676431e+42
3.993057e+42
3.500201e+42
4.410674e+42
4.339610e+42
4.659868e+42
6.211377e+42
7.112628e+42
7.399772e+42
8.717960e+42
8.629973e+42
8.495648e+42
9.478462e+42
9.148447e+42
9.046262e+42
9.126733e+42
8.369215e+42
7.314461e+42
6.792065e+42
5.818576e+42
6.084952e+42
5.953479e+42
5.495837e+42
4.286279e+42
4.280806e+42
3.900261e+42
3.361373e+42
4.538058e+42
4.906034e+42
5.333721e+42
4.995285e+42
4.966933e+42
4.471034e+42
4.470806e+42
5.109910e+42
5.084475e+42
6.310697e+42
3.574413e+42
3.448658e+42
3.303714e+42
3.311621e+42
3.286350e+42
4.633343e+42
4.764665e+42
4.255573e+42
4.404208e+42
3.821106e+42
3.957671e+42
3.825492e+42
3.279847e+42
3.276385e+42
4.056371e+42
3.585835e+42
3.823738e+42
3.754490e+42
3.826373e+42
4.964448e+42
4.972708e+42
4.977480e+42
4.891281e+42
4.955558e+42
4.248908e+42
5.176592e+42
5.075060e+42
5.160265e+42
6.055114e+42
6.469842e+42
6.329665e+42
6.591078e+42
6.622242e+42
7.208070e+42
7.796091e+42
6.507937e+42
6.334011e+42
6.765612e+42
6.008604e+42
5.921194e+42
5.972648e+42
5.803194e+42
6.069630e+42
5.465237e+42
5.222391e+42
4.601580e+42
4.515366e+42
3.928994e+42
3.604991e+42
3.317626e+42
3.434824e+42
3.499188e+42
3.202251e+42
3.195466e+42
2.847533e+42
3.338036e+42
3.500259e+42
3.499949e+42
3.460722e+42
2.699963e+42
2.650897e+42
2.553302e+42
2.520323e+42
2.559149e+42
3.392871e+42
3.047383e+42
3.272536e+42
3.511895e+42
3.514901e+42
4.792762e+42
4.690392e+42
4.513509e+42
5.098384e+42
5.130797e+42
4.654309e+42
5.557705e+42
5.652424e+42
6.093737e+42
7.015094e+42
8.059706e+42
8.240709e+42
8.915353e+42
8.546437e+42
8.460549e+42
9.226505e+42
8.767640e+42
8.321818e+42
8.512556e+42
8.067932e+42
