5.378062e-02
2.462866e-01
7.502014e-02
1.046327e-01
6.609444e-02
-4.935023e-02
-7.156733e-02
-4.711794e-02
-1.051182e-01
-1.639978e-01
-1.371213e-01
-8.661304e-02
-3.470125e-02
2.038133e-03
1.395284e-02
5.909140e-02
1.395402e-01
1.916312e-01
2.190790e-01
2.315916e-01
1.789950e-01
1.475069e-01
1.389085e-01
1.018838e-01
7.444218e-02
2.453256e-02
-5.127715e-02
-1.137368e-01
-1.410980e-01
-1.551572e-01
-1.184461e-01
-8.152116e-02
-4.698463e-02
-3.614903e-04
2.718720e-02
7.320282e-02
1.244341e-01
1.561052e-01
1.945723e-01
2.274735e-01
2.126395e-01
1.967475e-01
1.575802e-01
8.097782e-02
3.547809e-02
-9.254311e-03
-5.973112e-02
-7.388702e-02
-9.530503e-02
-1.253957e-01
-1.160479e-01
-1.127221e-01
-9.384289e-02
-3.276138e-02
1.602767e-02
7.671424e-02
1.458014e-01
1.768724e-01
1.897306e-01
2.122960e-01
1.889085e-01
1.793322e-01
1.424426e-01
9.009375e-02
5.564155e-02
1.483066e-02
-3.961130e-02
-7.350352e-02
-1.071293e-01
-1.358732e-01
-1.140688e-01
-1.071200e-01
-6.936754e-02
-1.634113e-02
1.724220e-02
7.907260e-02
1.373899e-01
1.780595e-01
1.959833e-01
2.164850e-01
1.910697e-01
1.765455e-01
1.475655e-01
8.931822e-02
6.307492e-02
1.233383e-02
-5.500970e-02
-7.964376e-02
-1.137643e-01
-1.542845e-01
-1.252438e-01
-1.200694e-01
-8.225305e-02
-2.325158e-02
1.659072e-02
7.993534e-02
1.406299e-01
1.599373e-01
1.781239e-01
1.946352e-01
1.714094e-01
1.711119e-01
1.493186e-01
9.093454e-02
5.348986e-02
-1.768279e-03
-5.846305e-02
-8.254378e-02
-1.116153e-01
-1.482240e-01
-1.295990e-01
-1.221981e-01
-9.223551e-02
-2.702760e-02
4.496084e-03
6.506103e-02
1.272779e-01
1.610336e-01
1.807901e-01
2.041731e-01
1.850353e-01
1.670337e-01
1.401507e-01
8.841705e-02
5.757970e-02
1.055703e-02
-5.656771e-02
-9.669143e-02
-1.317244e-01
-1.509033e-01
-1.386710e-01
-1.249501e-01
-8.217108e-02
-2.509291e-02
4.760914e-03
6.960166e-02
1.278401e-01
1.476304e-01
1.746870e-01
2.093551e-01
1.917398e-01
1.719372e-01
1.462247e-01
9.441033e-02
5.138589e-02
4.659258e-03
-5.298206e-02
-9.100480e-02
-1.129495e-01
-1.431402e-01
-1.334866e-01
-1.209440e-01
-9.798232e-02
-3.877515e-02
4.631178e-03
5.821536e-02
1.151888e-01
1.469363e-01
1.803883e-01
2.005497e-01
1.883136e-01
1.778746e-01
1.440560e-01
9.018300e-02
5.725540e-02
1.857313e-03
-6.493374e-02
-9.070024e-02
-1.137697e-01
-1.588317e-01
-1.332586e-01
-1.269154e-01
-9.797562e-02
-3.911764e-02
-1.688740e-04
5.726693e-02
1.087463e-01
1.373021e-01
1.746236e-01
1.999281e-01
1.769434e-01
1.713755e-01
1.450856e-01
8.746097e-02
5.741165e-02
9.062785e-03
-4.752617e-02
-9.431459e-02
-1.132995e-01
-1.471001e-01
-1.319917e-01
-1.196431e-01
-9.687391e-02
-4.880101e-02
-4.832589e-03
4.925815e-02
1.101409e-01
1.484216e-01
1.715493e-01
1.919026e-01
1.832796e-01
1.730974e-01
1.614532e-01
1.094071e-01
5.636543e-02
9.977772e-03
-4.458024e-02
-8.008587e-02
-9.759323e-02
-1.280675e-01
-1.410039e-01
-1.325430e-01
-1.033086e-01
-5.185786e-02
-5.924169e-03
4.046816e-02
9.872383e-02
1.467665e-01
1.785612e-01
1.998733e-01
1.857317e-01
1.744828e-01
1.390944e-01
1.062059e-01
6.264261e-02
2.373386e-03
-5.640939e-02
-8.928198e-02
-1.232846e-01
-1.490748e-01
-1.379675e-01
-1.273873e-01
-9.893669e-02
-4.735783e-02
-3.260553e-03
3.714997e-02
9.656461e-02
1.439570e-01
1.734537e-01
1.961478e-01
1.950629e-01
1.716528e-01
1.444830e-01
9.984730e-02
4.613755e-02
4.418604e-03
-4.739544e-02
-9.125237e-02
-1.222348e-01
-1.453793e-01
-1.490393e-01
-1.316887e-01
-1.113330e-01
-5.830404e-02
-1.063905e-02
4.217050e-02
9.704261e-02
1.339900e-01
1.581649e-01
1.749366e-01
1.833589e-01
1.806336e-01
1.549603e-01
1.114930e-01
5.866686e-02
8.582412e-03
-4.991961e-02
-9.190776e-02
-1.242730e-01
-1.435885e-01
-1.503989e-01
-1.314358e-01
-1.103290e-01
-7.403076e-02
-2.383760e-02
2.351528e-02
7.746439e-02
1.323722e-01
1.603463e-01
1.815635e-01
1.867076e-01
1.654987e-01
1.484878e-01
1.063201e-01
4.898800e-02
3.154583e-03
-6.169168e-02
-1.077418e-01
-1.352104e-01
-1.581593e-01
-1.628558e-01
-1.341151e-01
-1.126709e-01
-7.087453e-02
-1.590132e-02
2.342901e-02
7.943051e-02
1.261530e-01
1.598250e-01
1.809278e-01
1.814043e-01
1.688262e-01
1.467130e-01
9.159632e-02
3.864364e-02
-1.441645e-04
-5.080396e-02
-9.662209e-02
-1.229406e-01
-1.495025e-01
-1.650916e-01
-1.470047e-01
-1.106345e-01
-7.993128e-02
-3.474925e-02
1.362540e-02
6.821356e-02
1.215504e-01
1.542793e-01
1.717321e-01
1.840442e-01
1.647656e-01
1.473212e-01
1.100778e-01
4.617139e-02
2.276224e-03
-5.605894e-02
-1.010053e-01
-1.227151e-01
-1.434509e-01
-1.559626e-01
-1.445954e-01
-1.248692e-01
-8.751667e-02
-3.123952e-02
1.419772e-02
6.846895e-02
1.233970e-01
1.492716e-01
1.648520e-01
1.837194e-01
1.630733e-01
1.448573e-01
1.097955e-01
5.661432e-02
1.684509e-02
-4.229647e-02
-9.602018e-02
-1.273529e-01
-1.503935e-01
-1.660790e-01
-1.410670e-01
-1.190390e-01
-8.854206e-02
-2.409634e-02
6.238702e-03
5.970401e-02
1.183363e-01
1.399735e-01
1.665643e-01
1.835269e-01
1.655445e-01
1.484931e-01
1.174363e-01
5.275512e-02
1.099811e-02
-4.396000e-02
-9.065922e-02
-1.222501e-01
-1.434613e-01
-1.671139e-01
-1.478578e-01
-1.275127e-01
-8.329612e-02
-2.190078e-02
1.322396e-02
6.321260e-02
1.167850e-01
1.499457e-01
1.677486e-01
1.841947e-01
1.703723e-01
1.455862e-01
1.128432e-01
5.725605e-02
1.134478e-02
-4.722691e-02
-9.917784e-02
-1.242312e-01
-1.460151e-01
-1.677567e-01
-1.373415e-01
-1.210705e-01
-9.182254e-02
-2.983557e-02
6.725738e-03
5.696037e-02
1.188506e-01
1.514161e-01
1.706848e-01
1.858435e-01
1.597253e-01
1.387263e-01
1.088704e-01
5.807461e-02
1.376851e-02
-4.553474e-02
-9.629097e-02
-1.173705e-01
-1.323569e-01
-1.484579e-01
-1.483305e-01
-1.490969e-01
-1.056551e-01
-4.108583e-02
-1.770998e-03
7.044313e-02
1.070671e-01
1.355437e-01
1.659198e-01
1.865189e-01
1.642306e-01
1.374739e-01
1.006719e-01
4.459883e-02
1.226122e-02
-3.220151e-02
-1.013546e-01
-1.320253e-01
-1.537451e-01
-1.745730e-01
-1.529519e-01
-1.155772e-01
-8.941112e-02
-3.452421e-02
1.159065e-03
5.813265e-02
1.175803e-01
1.403096e-01
1.584150e-01
1.799427e-01
1.534976e-01
1.394325e-01
1.149695e-01
5.291588e-02
1.672469e-02
-3.279327e-02
-8.693298e-02
-1.175798e-01
-1.443944e-01
-1.743636e-01
-1.531329e-01
-1.349989e-01
-9.916061e-02
-4.300618e-02
-1.053167e-02
4.649533e-02
1.038142e-01
1.326254e-01
1.579171e-01
1.854088e-01
1.554153e-01
1.472277e-01
1.136050e-01
5.966723e-02
1.998369e-02
-3.410134e-02
-9.417697e-02
-1.248940e-01
-1.534377e-01
-1.759821e-01
-1.539372e-01
-1.424401e-01
-1.081712e-01
-4.988062e-02
-1.322068e-02
3.630141e-02
9.245922e-02
1.203707e-01
1.458779e-01
1.703556e-01
1.546019e-01
1.400905e-01
1.050409e-01
3.765342e-02
-2.006461e-03
-6.281520e-02
-1.206530e-01
-1.384173e-01
-1.657945e-01
-1.840266e-01
-1.634676e-01
-1.508100e-01
-1.208754e-01
-6.103517e-02
-2.603766e-02
3.685329e-02
9.172831e-02
1.268947e-01
1.529610e-01
1.747755e-01
1.488108e-01
1.361926e-01
1.036958e-01
3.802990e-02
3.207157e-03
-5.666791e-02
-1.154791e-01
-1.417004e-01
-1.633491e-01
-1.793505e-01
-1.574143e-01
-1.432866e-01
-1.113956e-01
-5.506635e-02
-1.690064e-02
3.308351e-02
9.486685e-02
1.195825e-01
1.562782e-01
1.883191e-01
1.628133e-01
1.453223e-01
1.078959e-01
5.366026e-02
7.695892e-03
-3.512727e-02
-9.727229e-02
-1.377770e-01
-1.632754e-01
-1.788858e-01
-1.708150e-01
-1.587268e-01
-1.270336e-01
-7.318721e-02
-2.972123e-02
2.839551e-02
8.752573e-02
1.180805e-01
1.489041e-01
1.735750e-01
1.633733e-01
1.425240e-01
1.137737e-01
5.430138e-02
2.029109e-02
-3.764370e-02
-9.867351e-02
-1.330026e-01
-1.675544e-01
-1.899725e-01
-1.727018e-01
-1.587087e-01
-1.349217e-01
-7.166430e-02
-2.470268e-02
2.645090e-02
8.755021e-02
1.260298e-01
1.410056e-01
1.721198e-01
1.521037e-01
1.380803e-01
1.159039e-01
5.402512e-02
1.646991e-02
-3.226760e-02
-9.607308e-02
-1.346484e-01
-1.580526e-01
-1.858804e-01
-1.693910e-01
-1.643600e-01
-1.279785e-01
-6.880136e-02
-3.101599e-02
2.852242e-02
8.496965e-02
1.151453e-01
1.371868e-01
1.629371e-01
1.461595e-01
1.368328e-01
1.100487e-01
5.451195e-02
2.078462e-02
-3.137771e-02
-9.121429e-02
-1.204184e-01
-1.574770e-01
-1.719693e-01
-1.703566e-01
-1.665705e-01
-1.308434e-01
-8.045245e-02
-3.768008e-02
1.744024e-02
8.199194e-02
1.151171e-01
1.408540e-01
1.682021e-01
1.609506e-01
1.462595e-01
1.157199e-01
6.043987e-02
2.486770e-02
-2.888796e-02
-8.480725e-02
-1.268350e-01
-1.536961e-01
-1.808649e-01
-1.741599e-01
-1.525880e-01
-1.130033e-01
-6.670953e-02
-2.267571e-02
3.154331e-02
7.918275e-02
1.210752e-01
1.463944e-01
1.696396e-01
1.543165e-01
1.489303e-01
1.187059e-01
6.433117e-02
3.273611e-02
-2.505956e-02
-8.417802e-02
-1.216780e-01
-1.520974e-01
-1.734845e-01
-1.614758e-01
-1.554051e-01
-1.236333e-01
-7.069520e-02
-3.310317e-02
2.507259e-02
7.729177e-02
1.047034e-01
1.396801e-01
1.592674e-01
1.506504e-01
1.440253e-01
1.127962e-01
6.643306e-02
2.543861e-02
-2.660149e-02
-8.224810e-02
-1.285315e-01
-1.534040e-01
-1.680528e-01
-1.532032e-01
-1.430428e-01
-1.262852e-01
-8.008046e-02
-3.964432e-02
1.181512e-02
6.675390e-02
1.077927e-01
1.366012e-01
1.619128e-01
1.603719e-01
1.553872e-01
1.222759e-01
6.646838e-02
2.194337e-02
-2.832554e-02
-8.817012e-02
-1.223653e-01
-1.516177e-01
-1.716317e-01
-1.731409e-01
-1.616500e-01
-1.345419e-01
-8.854979e-02
-4.386355e-02
5.094841e-03
6.150541e-02
1.011583e-01
1.378674e-01
1.601815e-01
1.585797e-01
1.383520e-01
1.104481e-01
7.672825e-02
3.301388e-02
-1.342675e-02
-8.066744e-02
-1.279479e-01
-1.565844e-01
-1.726603e-01
-1.676668e-01
-1.670907e-01
-1.435134e-01
-9.745785e-02
-3.649259e-02
1.146819e-02
6.531139e-02
1.076628e-01
1.366948e-01
1.650360e-01
1.708930e-01
1.560987e-01
1.175892e-01
6.280985e-02
3.047734e-02
-1.610134e-02
-7.706507e-02
-1.136802e-01
-1.483102e-01
-1.698193e-01
-1.777232e-01
-1.689271e-01
-1.426936e-01
-9.751375e-02
-3.841712e-02
1.075035e-02
5.613383e-02
8.599578e-02
1.095392e-01
1.416755e-01
1.586718e-01
1.497619e-01
1.310818e-01
8.313380e-02
2.954503e-02
-1.005913e-02
-6.882278e-02
-1.293463e-01
-1.584841e-01
-1.813906e-01
-1.787155e-01
-1.587005e-01
-1.362195e-01
-1.049735e-01
-5.284625e-02
-7.340445e-03
6.017036e-02
1.137401e-01
1.413299e-01
1.533893e-01
1.617324e-01
1.463123e-01
1.130843e-01
7.609678e-02
3.195079e-02
-1.718870e-02
-6.953184e-02
-1.177428e-01
-1.524543e-01
-1.735638e-01
-1.787163e-01
-1.635521e-01
-1.325745e-01
-1.009513e-01
-3.898966e-02
-1.260889e-03
6.155099e-02
1.057192e-01
1.387022e-01
1.589845e-01
1.773477e-01
1.598621e-01
1.317219e-01
9.682347e-02
3.071407e-02
-1.092487e-02
-6.614827e-02
-1.114938e-01
-1.388682e-01
-1.512726e-01
-1.623770e-01
-1.516766e-01
-1.281992e-01
-9.332839e-02
-3.853376e-02
7.011184e-03
7.377216e-02
1.189272e-01
1.480349e-01
1.738306e-01
1.851380e-01
1.613971e-01
1.433214e-01
1.017580e-01
4.538848e-02
3.582268e-03
-4.458828e-02
-9.936878e-02
-1.266704e-01
-1.606289e-01
-1.645589e-01
-1.484901e-01
-1.330888e-01
-8.666661e-02
-2.760825e-02
6.163985e-03
6.950346e-02
1.267826e-01
1.466516e-01
1.660444e-01
1.836212e-01
1.727795e-01
1.465615e-01
1.130423e-01
4.883107e-02
1.189346e-02
-4.421091e-02
-9.264763e-02
-1.085032e-01
-1.424524e-01
-1.602274e-01
-1.456963e-01
-1.189751e-01
-8.267301e-02
-3.668929e-02
2.483014e-03
6.029150e-02
1.103130e-01
1.533931e-01
1.727958e-01
1.828782e-01
1.595000e-01
1.395523e-01
1.019323e-01
5.124525e-02
1.627534e-02
-4.210337e-02
-1.007359e-01
-1.284771e-01
-1.479501e-01
-1.707443e-01
-1.520181e-01
-1.266711e-01
-9.842190e-02
-4.016281e-02
-5.475985e-04
5.541986e-02
1.007013e-01
1.288488e-01
1.506025e-01
1.618138e-01
1.520533e-01
1.380957e-01
9.552521e-02
3.968120e-02
1.239931e-03
-5.309073e-02
-1.004428e-01
-1.286876e-01
-1.475956e-01
-1.716835e-01
-1.596897e-01
-1.371447e-01
-1.076109e-01
-5.579197e-02
-1.612494e-02
3.863754e-02
9.956414e-02
1.204564e-01
1.504924e-01
1.673907e-01
1.500582e-01
1.333636e-01
9.623153e-02
3.877243e-02
-1.836070e-03
-5.244686e-02
-1.020657e-01
-1.292317e-01
-1.576678e-01
-1.773688e-01
-1.581135e-01
-1.389288e-01
-1.032484e-01
-5.077959e-02
-1.597941e-02
3.937480e-02
9.898055e-02
1.244137e-01
1.500169e-01
1.656854e-01
1.465509e-01
1.332692e-01
1.104214e-01
5.188641e-02
8.866821e-03
-5.478935e-02
-1.131445e-01
-1.405673e-01
-1.683350e-01
-1.840755e-01
-1.707792e-01
-1.553499e-01
-1.200204e-01
-5.551139e-02
-1.421082e-02
3.982802e-02
8.907150e-02
1.194254e-01
1.532892e-01
1.649182e-01
1.486335e-01
1.332592e-01
9.304876e-02
4.611925e-02
4.842113e-03
-5.148046e-02
-1.067126e-01
-1.453739e-01
-1.687358e-01
-1.917127e-01
-1.743584e-01
-1.611565e-01
-1.242751e-01
-5.454499e-02
-1.241591e-02
3.972938e-02
8.639129e-02
1.170196e-01
1.418812e-01
1.620375e-01
1.516054e-01
1.345408e-01
9.966489e-02
4.951387e-02
1.021238e-02
-3.899848e-02
-1.113292e-01
-1.394777e-01
-1.641421e-01
-1.827726e-01
-1.572589e-01
-1.435284e-01
-1.216582e-01
-6.452002e-02
-2.490300e-02
2.660924e-02
9.037820e-02
1.280430e-01
1.453101e-01
1.646354e-01
1.497678e-01
1.383024e-01
9.625331e-02
4.726593e-02
3.358229e-03
-5.272301e-02
-1.080883e-01
-1.347481e-01
-1.662830e-01
-1.869533e-01
-1.692119e-01
-1.602359e-01
-1.278513e-01
-6.347828e-02
-3.590809e-02
2.099232e-02
8.264125e-02
1.130594e-01
1.500272e-01
1.729543e-01
1.567289e-01
1.395951e-01
1.119413e-01
4.694945e-02
-9.614556e-04
-5.015651e-02
-1.127558e-01
-1.440154e-01
-1.677126e-01
-1.877593e-01
-1.752773e-01
-1.599271e-01
-1.234037e-01
-7.040534e-02
-2.833130e-02
2.248969e-02
8.966508e-02
1.182472e-01
1.490606e-01
1.725086e-01
1.502216e-01
1.306589e-01
9.726434e-02
3.491762e-02
2.981822e-04
-5.622241e-02
-1.126931e-01
-1.409401e-01
-1.697117e-01
-1.967923e-01
-1.708130e-01
-1.586839e-01
-1.235677e-01
-6.323422e-02
-3.225020e-02
2.923617e-02
8.232982e-02
1.136828e-01
1.440209e-01
1.654268e-01
1.495270e-01
1.321924e-01
1.067718e-01
4.945003e-02
9.487697e-03
-4.299760e-02
-1.035936e-01
-1.376368e-01
-1.653591e-01
-1.890749e-01
-1.696634e-01
-1.649437e-01
-1.339285e-01
-7.783196e-02
-3.592032e-02
1.823199e-02
8.525039e-02
1.118481e-01
1.404910e-01
1.583530e-01
1.442596e-01
1.347336e-01
1.100893e-01
4.535264e-02
1.372998e-02
-4.522965e-02
-1.042942e-01
-1.351495e-01
-1.597085e-01
-1.861073e-01
-1.720013e-01
-1.665722e-01
-1.404895e-01
-8.309196e-02
-4.431301e-02
1.134184e-02
8.184116e-02
1.080004e-01
1.335365e-01
1.555375e-01
1.282769e-01
1.224806e-01
1.085547e-01
5.091209e-02
1.601167e-02
-3.664720e-02
-9.516220e-02
-1.377823e-01
-1.668252e-01
-1.938277e-01
-1.802559e-01
-1.694428e-01
-1.337271e-01
-8.211926e-02
-3.481813e-02
5.741039e-03
6.202468e-02
1.057793e-01
1.366486e-01
1.582707e-01
1.433833e-01
1.341632e-01
1.059011e-01
4.456306e-02
1.575886e-02
-3.359614e-02
-1.024938e-01
-1.362196e-01
-1.605366e-01
-1.898745e-01
-1.844451e-01
-1.662837e-01
-1.484879e-01
-8.797187e-02
-3.851777e-02
1.434043e-02
6.902252e-02
9.451930e-02
1.250199e-01
1.521186e-01
1.495128e-01
1.450702e-01
1.119482e-01
5.498691e-02
1.338268e-02
-3.364898e-02
-9.268786e-02
-1.267463e-01
-1.697972e-01
-1.874423e-01
-1.802380e-01
-1.617044e-01
-1.306546e-01
-8.220632e-02
-5.021777e-02
4.975352e-04
6.552092e-02
1.028605e-01
1.360154e-01
1.626480e-01
1.473305e-01
1.438605e-01
1.174810e-01
5.720421e-02
6.823341e-03
-5.506406e-02
-1.230055e-01
-1.462003e-01
-1.670029e-01
-1.934122e-01
-1.782245e-01
-1.711879e-01
-1.489905e-01
-8.760270e-02
-4.948639e-02
1.198923e-03
6.328680e-02
9.714898e-02
1.244408e-01
1.558020e-01
1.465024e-01
1.431704e-01
1.117496e-01
6.266806e-02
2.031874e-02
-3.941345e-02
-9.589380e-02
-1.360126e-01
-1.763148e-01
-1.960792e-01
-1.912508e-01
-1.688526e-01
-1.380563e-01
-9.725174e-02
-5.232499e-02
-1.151620e-02
5.036505e-02
8.736793e-02
1.141044e-01
1.438066e-01
1.346586e-01
1.330030e-01
1.032365e-01
5.550903e-02
1.266154e-02
-3.020935e-02
-8.197586e-02
-1.224581e-01
-1.548541e-01
-1.844990e-01
-1.881566e-01
-1.739319e-01
-1.448105e-01
-9.749562e-02
-5.167965e-02
3.603730e-04
6.172429e-02
1.014178e-01
1.313458e-01
1.535478e-01
1.605498e-01
1.432446e-01
1.125809e-01
6.720499e-02
9.478765e-03
-3.171606e-02
-8.778082e-02
-1.316929e-01
-1.593414e-01
-1.839170e-01
-1.879120e-01
-1.761475e-01
-1.474619e-01
-1.032128e-01
-5.517141e-02
-6.201860e-03
5.183247e-02
9.301376e-02
1.246057e-01
1.464523e-01
1.505563e-01
1.266422e-01
1.134307e-01
6.959989e-02
2.181434e-02
-2.302879e-02
-9.019594e-02
-1.438649e-01
-1.591836e-01
-1.743633e-01
-1.873511e-01
-1.716430e-01
-1.466888e-01
-1.128553e-01
-5.009747e-02
-6.684880e-04
5.924789e-02
1.022518e-01
1.292900e-01
1.510556e-01
1.602581e-01
1.389188e-01
1.143571e-01
6.950656e-02
2.457384e-02
-2.152941e-02
-7.794730e-02
-1.225695e-01
-1.528153e-01
-1.746313e-01
-1.823308e-01
-1.675153e-01
-1.347215e-01
-9.913662e-02
-4.480050e-02
5.233867e-03
5.524455e-02
9.896895e-02
1.232547e-01
1.514771e-01
1.676036e-01
1.530130e-01
1.305191e-01
8.375111e-02
2.935274e-02
-4.949600e-03
-6.492590e-02
-1.150723e-01
-1.520499e-01
-1.785913e-01
-1.775401e-01
-1.576064e-01
-1.358947e-01
-1.026593e-01
-5.242674e-02
-1.348716e-02
5.282908e-02
1.047376e-01
1.333837e-01
1.486672e-01
1.687810e-01
1.403175e-01
1.173351e-01
8.195843e-02
2.277353e-02
-1.553010e-02
-6.601015e-02
-1.103237e-01
-1.467313e-01
-1.704220e-01
-1.904968e-01
-1.667093e-01
-1.440672e-01
-9.991109e-02
-4.845890e-02
-1.192741e-02
4.828510e-02
9.399721e-02
1.236286e-01
1.495372e-01
1.625020e-01
1.407684e-01
1.235924e-01
9.281384e-02
2.909595e-02
-1.218714e-02
-7.379221e-02
-1.251909e-01
-1.423604e-01
-1.669224e-01
-1.812654e-01
-1.659726e-01
-1.576381e-01
-1.228441e-01
-6.159829e-02
-2.082583e-02
4.382103e-02
9.806992e-02
1.233315e-01
1.399620e-01
1.619142e-01
1.382633e-01
1.197970e-01
8.765016e-02
2.704597e-02
-1.021477e-02
-6.870990e-02
-1.248624e-01
-1.553191e-01
-1.754737e-01
-1.940678e-01
-1.721187e-01
-1.548959e-01
-1.247951e-01
-6.742124e-02
-2.870187e-02
2.961546e-02
8.101768e-02
1.166576e-01
1.373808e-01
1.556538e-01
1.459783e-01
1.188385e-01
7.868454e-02
2.862912e-02
-7.999564e-03
-7.109089e-02
-1.249262e-01
-1.478955e-01
-1.789874e-01
-1.921923e-01
-1.711404e-01
-1.543144e-01
-1.314931e-01
-6.574856e-02
-2.124300e-02
2.635233e-02
8.073553e-02
1.050346e-01
1.337891e-01
1.592297e-01
1.469672e-01
1.229963e-01
8.525185e-02
1.859838e-02
-1.551606e-02
-6.309372e-02
-1.209855e-01
-1.502024e-01
-1.798378e-01
-1.990147e-01
-1.795978e-01
-1.550128e-01
-1.163753e-01
-6.746728e-02
-3.626540e-02
2.253559e-02
7.529526e-02
1.159784e-01
1.377319e-01
1.544957e-01
1.243045e-01
1.068880e-01
8.121147e-02
2.734353e-02
-8.920182e-03
-6.749906e-02
-1.260212e-01
-1.537706e-01
-1.843556e-01
-1.959807e-01
-1.898281e-01
-1.709995e-01
-1.317292e-01
-7.173307e-02
-2.981698e-02
2.919031e-02
8.302784e-02
9.876640e-02
1.320841e-01
1.465990e-01
1.239132e-01
1.181562e-01
8.432798e-02
1.631768e-02
-1.429072e-02
-6.793540e-02
-1.212474e-01
-1.498467e-01
-1.796586e-01
-2.058195e-01
-1.867890e-01
-1.724908e-01
-1.413421e-01
-7.849345e-02
-4.043012e-02
1.167829e-02
7.451577e-02
9.219384e-02
1.230990e-01
1.423619e-01
1.294802e-01
1.244397e-01
9.015644e-02
2.862826e-02
-6.224931e-03
-6.060841e-02
-1.179411e-01
-1.505280e-01
-1.868195e-01
-2.069054e-01
-1.804402e-01
-1.669101e-01
-1.321726e-01
-6.735622e-02
-3.975853e-02
1.397329e-02
7.503305e-02
1.003738e-01
1.270724e-01
1.453149e-01
1.297696e-01
1.262492e-01
8.955967e-02
3.488962e-02
-1.278988e-04
-6.866870e-02
-1.276273e-01
-1.530861e-01
-1.842291e-01
-1.975624e-01
-1.737907e-01
-1.752430e-01
-1.347906e-01
-7.946740e-02
-3.982726e-02
1.203504e-02
6.986284e-02
9.688781e-02
1.266545e-01
1.466181e-01
1.289804e-01
1.159551e-01
8.524053e-02
2.643219e-02
3.615344e-03
-6.236423e-02
-1.258385e-01
-1.598251e-01
-1.845794e-01
-2.053709e-01
-1.833089e-01
-1.705124e-01
-1.435850e-01
-8.534219e-02
-4.562100e-02
8.208303e-03
6.156024e-02
9.395745e-02
1.221976e-01
1.436209e-01
1.171210e-01
1.061698e-01
7.574926e-02
2.650486e-02
-8.316898e-03
-5.360540e-02
-1.132980e-01
-1.419012e-01
-1.751900e-01
-2.006198e-01
-1.905198e-01
-1.822328e-01
-1.526084e-01
-8.651339e-02
-4.694150e-02
4.789536e-03
5.784939e-02
8.637635e-02
1.157504e-01
1.410434e-01
1.272118e-01
1.156427e-01
8.584130e-02
2.420837e-02
-9.682929e-03
-5.817756e-02
-1.111983e-01
-1.502151e-01
-1.722893e-01
-2.018557e-01
-1.923111e-01
-1.754688e-01
-1.454642e-01
-9.130246e-02
-5.701904e-02
-5.815143e-04
5.848943e-02
8.630602e-02
1.191796e-01
1.406447e-01
1.233443e-01
1.188777e-01
9.193564e-02
3.155307e-02
-7.797673e-03
-7.003553e-02
-1.265316e-01
-1.598120e-01
-1.731445e-01
-1.956561e-01
-1.933023e-01
-1.784358e-01
-1.570526e-01
-1.001430e-01
-6.570523e-02
-4.412035e-03
5.304674e-02
8.385298e-02
1.166877e-01
1.427372e-01
1.260908e-01
1.165193e-01
9.153076e-02
2.995261e-02
-1.029623e-02
-6.951746e-02
-1.258330e-01
-1.641812e-01
-1.852384e-01
-2.067758e-01
-1.962518e-01
-1.861303e-01
-1.555736e-01
-1.001501e-01
-6.977010e-02
-5.508014e-03
4.952948e-02
8.597855e-02
1.134822e-01
1.388050e-01
1.290659e-01
1.179405e-01
1.005674e-01
3.512417e-02
-1.453511e-02
-6.226224e-02
-1.195739e-01
-1.502107e-01
-1.681346e-01
-2.024171e-01
-1.998756e-01
-1.826824e-01
-1.529183e-01
-1.039696e-01
-6.060659e-02
-2.182394e-02
3.682357e-02
8.986987e-02
1.308549e-01
1.541715e-01
1.311215e-01
1.168326e-01
7.978597e-02
3.376456e-02
4.051291e-03
-5.594146e-02
-1.102731e-01
-1.566591e-01
-1.968191e-01
-2.069108e-01
-2.014413e-01
-1.893187e-01
-1.581623e-01
-1.003817e-01
-7.092230e-02
-1.557451e-02
3.674437e-02
6.958328e-02
1.075740e-01
1.290898e-01
1.284222e-01
1.174862e-01
9.791730e-02
4.495036e-02
-4.827308e-03
-4.807903e-02
-1.130103e-01
-1.454367e-01
-1.717487e-01
-1.967757e-01
-1.930273e-01
-1.876317e-01
-1.636460e-01
-1.099691e-01
-6.701388e-02
-1.253573e-02
5.216105e-02
8.888561e-02
1.145990e-01
1.396685e-01
1.281273e-01
1.169973e-01
8.880034e-02
4.634003e-02
-7.635399e-05
-4.904409e-02
-1.173456e-01
-1.593507e-01
-1.848632e-01
-2.124062e-01
-2.041621e-01
-1.923460e-01
-1.723531e-01
-1.170835e-01
-7.393716e-02
-1.927920e-02
3.873505e-02
7.583761e-02
1.053679e-01
1.393978e-01
1.402414e-01
1.176784e-01
8.867768e-02
5.071652e-02
-7.658567e-03
-5.521259e-02
-1.048153e-01
-1.472696e-01
-1.817451e-01
-1.999497e-01
-1.949904e-01
-1.883495e-01
-1.550066e-01
-1.072390e-01
-7.133287e-02
-2.378663e-02
2.686504e-02
6.495063e-02
1.013275e-01
1.229688e-01
1.403091e-01
1.245386e-01
1.135686e-01
6.791796e-02
1.369135e-02
-4.183903e-02
-9.805926e-02
-1.410984e-01
-1.746248e-01
-1.955298e-01
-2.005684e-01
-1.847691e-01
-1.570869e-01
-1.124343e-01
-6.525967e-02
-1.707049e-02
4.266382e-02
8.871029e-02
1.192234e-01
1.367869e-01
1.399713e-01
1.211953e-01
9.465901e-02
6.149120e-02
9.888175e-03
-4.662436e-02
-1.039637e-01
-1.434414e-01
-1.787734e-01
-1.979074e-01
-1.942331e-01
-1.802504e-01
-1.619326e-01
-1.156415e-01
-6.416650e-02
-3.327366e-02
3.367387e-02
8.047508e-02
1.138812e-01
1.302819e-01
1.487423e-01
1.301728e-01
1.008286e-01
6.221094e-02
1.423760e-02
-4.284353e-02
-9.250605e-02
-1.421894e-01
-1.837456e-01
-2.093916e-01
-2.151621e-01
-1.930219e-01
-1.652085e-01
-1.266075e-01
-7.600254e-02
-3.594939e-02
3.016836e-02
8.796757e-02
1.126308e-01
1.361573e-01
1.487787e-01
1.300355e-01
1.104207e-01
7.111214e-02
1.230069e-02
-3.309227e-02
-8.824460e-02
-1.303750e-01
-1.579680e-01
-1.828554e-01
-2.031476e-01
-1.836579e-01
-1.668037e-01
-1.170093e-01
-5.885879e-02
-1.559591e-02
4.127324e-02
8.648739e-02
1.176656e-01
1.282724e-01
1.510308e-01
1.408058e-01
1.082643e-01
7.146525e-02
2.642845e-02
-2.463201e-02
-7.185371e-02
-1.110542e-01
-1.481121e-01
-1.779182e-01
-1.990428e-01
-1.744788e-01
-1.450260e-01
-1.101318e-01
-6.154422e-02
-1.387779e-02
4.527159e-02
9.778157e-02
1.223703e-01
1.464323e-01
1.534495e-01
1.317907e-01
1.241009e-01
9.502493e-02
2.925421e-02
-1.811785e-02
-7.162655e-02
-1.267198e-01
-1.597487e-01
-1.870767e-01
-1.912952e-01
-1.787940e-01
-1.600434e-01
-1.206978e-01
-6.529751e-02
-3.226828e-02
2.345442e-02
7.807145e-02
1.105554e-01
1.288814e-01
1.435032e-01
1.262640e-01
1.056376e-01
7.552339e-02
1.929596e-02
-9.973680e-03
-7.185706e-02
-1.400591e-01
-1.708742e-01
-1.811164e-01
-2.052421e-01
-1.936171e-01
-1.684098e-01
-1.293391e-01
-7.202053e-02
-1.361396e-02
3.770129e-02
8.046146e-02
1.009802e-01
1.292556e-01
1.556688e-01
1.451339e-01
1.253065e-01
8.920635e-02
2.266886e-02
-1.114700e-02
-6.670645e-02
-1.208963e-01
-1.572959e-01
-1.746029e-01
-1.919328e-01
-1.747632e-01
-1.532113e-01
-1.239830e-01
-6.476324e-02
-3.344366e-02
2.003719e-02
8.199330e-02
1.057067e-01
1.308200e-01
1.591757e-01
1.313366e-01
1.163268e-01
8.756831e-02
3.084113e-02
-1.541917e-02
-6.772023e-02
-1.239332e-01
-1.530906e-01
-1.816542e-01
-1.934447e-01
-1.876131e-01
-1.681887e-01
-1.370595e-01
-7.713346e-02
-3.907423e-02
2.587054e-03
5.683030e-02
9.220428e-02
1.225026e-01
1.520195e-01
1.335527e-01
1.075129e-01
6.704493e-02
8.639388e-03
-1.289160e-02
-6.220213e-02
-1.269918e-01
-1.519086e-01
-1.848211e-01
-2.093854e-01
-1.811126e-01
-1.618358e-01
-1.405426e-01
-9.592799e-02
-4.479706e-02
1.662627e-02
7.375217e-02
1.150606e-01
1.333714e-01
1.412578e-01
1.325274e-01
1.197410e-01
8.716609e-02
2.638226e-02
-1.130885e-02
-6.508805e-02
-1.157229e-01
-1.444995e-01
-1.693386e-01
-1.945238e-01
-1.848592e-01
-1.670536e-01
-1.416255e-01
-8.284774e-02
-4.278966e-02
1.914512e-02
8.217207e-02
1.002939e-01
1.248981e-01
1.391966e-01
1.139721e-01
1.005068e-01
7.840412e-02
2.373568e-02
-5.086295e-03
-6.565416e-02
-1.215906e-01
-1.504384e-01
-1.859701e-01
-2.060695e-01
-1.708411e-01
-1.626166e-01
-1.285615e-01
-7.395583e-02
-2.971362e-02
2.058223e-02
7.673449e-02
1.046502e-01
1.220076e-01
1.420263e-01
1.273962e-01
1.139512e-01
8.740038e-02
2.834424e-02
-2.027640e-02
-7.142113e-02
-1.252449e-01
-1.533483e-01
-1.862145e-01
-2.214668e-01
-2.055748e-01
-1.906793e-01
-1.439470e-01
-7.938053e-02
-4.433790e-02
7.059600e-03
4.729117e-02
8.584309e-02
1.188165e-01
1.426351e-01
1.352557e-01
1.174456e-01
8.376498e-02
2.321732e-02
-2.022962e-02
-7.962807e-02
-1.525031e-01
-1.823568e-01
-1.963360e-01
-2.164930e-01
-1.866606e-01
-1.808098e-01
-1.630299e-01
-1.158913e-01
-6.714905e-02
-1.115720e-02
6.608278e-02
9.511620e-02
1.242600e-01
1.509280e-01
1.366194e-01
1.169561e-01
8.598608e-02
3.552571e-02
-6.905437e-03
-5.336995e-02
-1.164266e-01
-1.556017e-01
-1.871889e-01
-2.042537e-01
-1.795118e-01
-1.667623e-01
-1.451658e-01
-8.736356e-02
-5.129201e-02
5.445135e-03
5.902151e-02
8.948806e-02
1.206998e-01
1.431563e-01
1.357104e-01
1.342022e-01
1.016794e-01
3.593997e-02
1.800987e-03
-5.168557e-02
-1.089015e-01
-1.363634e-01
-1.761213e-01
-1.953734e-01
-1.858376e-01
-1.775213e-01
-1.413864e-01
-8.330289e-02
-4.608741e-02
9.448537e-03
7.094705e-02
9.177174e-02
1.274947e-01
1.521855e-01
1.307763e-01
1.164126e-01
9.112646e-02
2.085286e-02
-1.562767e-02
-5.887652e-02
-1.134810e-01
-1.612125e-01
-1.793913e-01
-2.093895e-01
-1.985320e-01
-1.822777e-01
-1.588214e-01
-9.440868e-02
-5.622267e-02
8.057461e-03
6.264630e-02
9.059656e-02
1.024508e-01
1.245353e-01
1.212231e-01
1.167719e-01
8.397153e-02
2.991887e-02
-1.281767e-02
-7.118957e-02
-1.246044e-01
-1.540907e-01
-1.902102e-01
-2.104941e-01
-1.942698e-01
-1.843446e-01
-1.561281e-01
-9.781630e-02
-6.503399e-02
-5.143692e-03
6.065121e-02
9.576555e-02
1.255537e-01
1.483429e-01
1.354434e-01
1.155099e-01
9.011950e-02
3.328539e-02
5.665246e-03
-4.426184e-02
-1.018782e-01
-1.371377e-01
-1.770814e-01
-2.067476e-01
-1.939564e-01
-1.777819e-01
-1.497562e-01
-9.356506e-02
-5.168105e-02
-9.014478e-03
4.153328e-02
8.628590e-02
1.158284e-01
1.461809e-01
1.281724e-01
1.123467e-01
8.853380e-02
3.959195e-02
1.684982e-02
-3.274788e-02
-1.065703e-01
-1.411537e-01
-1.682843e-01
-1.943512e-01
-1.736636e-01
-1.684486e-01
-1.535630e-01
-1.027362e-01
-4.759287e-02
1.928799e-03
5.321886e-02
8.945807e-02
1.183694e-01
1.383792e-01
1.336367e-01
1.332227e-01
1.031917e-01
4.061551e-02
-1.551303e-03
-5.561632e-02
-1.121676e-01
-1.534654e-01
-1.756902e-01
-1.936868e-01
-1.958002e-01
-1.870260e-01
-1.568838e-01
-1.110509e-01
-6.401011e-02
-1.302274e-02
4.479787e-02
8.395043e-02
1.064109e-01
1.329056e-01
1.219356e-01
1.118131e-01
8.536664e-02
3.760558e-02
-8.386699e-03
-5.066496e-02
-1.020630e-01
-1.499647e-01
-1.729257e-01
-1.924553e-01
-1.935642e-01
-1.761479e-01
-1.562322e-01
-1.122369e-01
-6.354792e-02
-7.948799e-03
4.756246e-02
8.909000e-02
1.162469e-01
1.295934e-01
1.309084e-01
1.190508e-01
8.744403e-02
4.333408e-02
-7.761498e-03
-4.741549e-02
-9.697732e-02
-1.410970e-01
-1.627655e-01
-1.774919e-01
-1.842190e-01
-1.685345e-01
-1.500138e-01
-1.150998e-01
-6.767073e-02
-2.365298e-02
4.146369e-02
8.808568e-02
1.022320e-01
1.247032e-01
1.320927e-01
1.118619e-01
8.521601e-02
4.738183e-02
-2.540653e-03
-4.696301e-02
-9.883068e-02
-1.513469e-01
-1.873492e-01
-2.109739e-01
-2.173272e-01
-1.756166e-01
-1.525531e-01
-1.074155e-01
-5.957943e-02
-3.126766e-02
2.915854e-02
7.119386e-02
1.013037e-01
1.330642e-01
1.281589e-01
1.134108e-01
8.686627e-02
4.042363e-02
-1.229243e-02
-4.976320e-02
-1.007000e-01
-1.384175e-01
-1.661301e-01
-1.865312e-01
-1.925539e-01
-1.872173e-01
-1.612415e-01
-1.164123e-01
-5.401994e-02
-3.736128e-03
3.629068e-02
7.580484e-02
1.021532e-01
1.214341e-01
1.387737e-01
1.321600e-01
1.092786e-01
6.351192e-02
1.044636e-02
-3.464489e-02
-8.619558e-02
-1.291033e-01
-1.604089e-01
-1.765888e-01
-1.782077e-01
-1.640907e-01
-1.526994e-01
-1.159730e-01
-7.357401e-02
-2.864287e-02
3.913048e-02
9.513966e-02
1.275900e-01
1.509342e-01
1.491718e-01
1.297275e-01
1.115978e-01
7.318994e-02
1.924445e-02
-1.357377e-02
-6.941058e-02
-1.144728e-01
-1.469097e-01
-1.685568e-01
-1.811321e-01
-1.689721e-01
-1.439774e-01
-9.972806e-02
-4.423023e-02
-5.377206e-03
4.767263e-02
1.040363e-01
1.252468e-01
1.530849e-01
1.673091e-01
1.538817e-01
1.241679e-01
8.937801e-02
2.331892e-02
-2.089145e-02
-6.738408e-02
-1.159395e-01
-1.531685e-01
-1.737179e-01
-1.876393e-01
-1.744586e-01
-1.499254e-01
-1.140212e-01
-6.378410e-02
-2.705676e-02
3.666947e-02
9.322357e-02
1.134113e-01
1.297307e-01
1.336070e-01
1.161115e-01
1.023999e-01
7.476111e-02
2.339080e-02
-2.889441e-02
-8.970664e-02
-1.258840e-01
-1.517094e-01
-1.722571e-01
-1.871283e-01
-1.691239e-01
-1.576426e-01
-1.165339e-01
-5.094702e-02
-2.244052e-02
2.265488e-02
6.955692e-02
1.031577e-01
1.324465e-01
1.422165e-01
1.296165e-01
1.069277e-01
7.975233e-02
3.266723e-02
-4.210008e-03
-6.367726e-02
-1.187655e-01
-1.515953e-01
-1.698541e-01
-1.876494e-01
-1.768869e-01
-1.493186e-01
-1.191693e-01
-6.476682e-02
-1.930844e-02
3.065867e-02
7.817908e-02
1.149933e-01
1.409404e-01
1.557531e-01
1.441489e-01
1.241835e-01
7.769845e-02
3.302528e-02
-4.997327e-03
-5.933180e-02
-1.052209e-01
-1.425782e-01
-1.794596e-01
-1.954460e-01
-1.782714e-01
-1.608620e-01
-1.212972e-01
-6.599482e-02
-2.771856e-02
3.399311e-02
9.053864e-02
1.147802e-01
1.281659e-01
1.477409e-01
1.325186e-01
1.066317e-01
8.885392e-02
3.144255e-02
-1.201615e-02
-5.662257e-02
-1.115188e-01
-1.487268e-01
-1.644498e-01
-1.905773e-01
-1.684401e-01
-1.504683e-01
-1.131031e-01
-5.519678e-02
-3.127148e-02
3.355567e-02
8.418402e-02
1.037152e-01
1.308865e-01
1.569072e-01
1.285918e-01
1.212018e-01
9.495796e-02
3.975495e-02
-5.381252e-03
-6.390689e-02
-1.147306e-01
-1.398807e-01
-1.661495e-01
-1.845752e-01
-1.723456e-01
-1.582087e-01
-1.278605e-01
-6.547695e-02
-2.800864e-02
1.042960e-02
6.627854e-02
9.328270e-02
1.148668e-01
1.435053e-01
1.290355e-01
1.177009e-01
8.586886e-02
3.192005e-02
-1.013064e-02
-7.277194e-02
-1.296471e-01
-1.501283e-01
-1.723904e-01
-1.893712e-01
-1.581235e-01
-1.414493e-01
-1.212323e-01
-6.264590e-02
-3.284947e-02
1.723904e-02
6.920853e-02
1.071018e-01
1.294465e-01
1.418969e-01
1.236314e-01
1.076320e-01
8.383543e-02
2.922690e-02
4.632353e-03
-4.529646e-02
-1.120914e-01
-1.336922e-01
-1.577442e-01
-1.763841e-01
-1.523101e-01
-1.355363e-01
-1.093054e-01
-5.232636e-02
-2.021880e-02
1.943989e-02
7.696590e-02
1.056604e-01
1.193158e-01
1.532363e-01
1.395807e-01
1.207522e-01
8.643030e-02
2.539119e-02
-1.894932e-02
-6.491385e-02
-1.133891e-01
-1.372660e-01
-1.594668e-01
-1.758801e-01
-1.705122e-01
-1.593854e-01
-1.190863e-01
-7.356433e-02
-3.793621e-02
1.085608e-02
7.115411e-02
9.621999e-02
1.227346e-01
1.424560e-01
1.259263e-01
1.082441e-01
8.882315e-02
3.546571e-02
-4.019446e-03
-5.641570e-02
-1.163168e-01
-1.442560e-01
-1.604268e-01
-1.828809e-01
-1.740945e-01
-1.623975e-01
-1.282133e-01
-7.864503e-02
-5.019915e-02
1.629420e-02
6.594690e-02
1.000370e-01
1.316077e-01
1.504120e-01
1.339663e-01
1.218204e-01
8.778460e-02
3.517808e-02
-3.070210e-04
-5.745982e-02
-1.059150e-01
-1.247166e-01
-1.550939e-01
-1.845869e-01
-1.691846e-01
-1.623764e-01
-1.360140e-01
-7.673892e-02
-4.689609e-02
1.535483e-03
6.688567e-02
1.012713e-01
1.231347e-01
1.405285e-01
1.300583e-01
1.153609e-01
8.952003e-02
4.588955e-02
1.404021e-02
-3.903830e-02
-9.416158e-02
-1.147266e-01
-1.587429e-01
-1.752219e-01
-1.691791e-01
-1.619133e-01
-1.377045e-01
-7.593991e-02
-3.348101e-02
2.653746e-02
8.161325e-02
1.160495e-01
1.340674e-01
1.490020e-01
1.363245e-01
1.154961e-01
9.283268e-02
4.077429e-02
1.179438e-02
-3.808908e-02
-8.062851e-02
-1.191876e-01
-1.578110e-01
-1.731831e-01
-1.577255e-01
-1.561743e-01
-1.225092e-01
-7.243645e-02
-3.518595e-02
1.326356e-02
7.096607e-02
9.464626e-02
1.236973e-01
1.548138e-01
1.434187e-01
1.406756e-01
9.658691e-02
4.379417e-02
7.794967e-03
-4.603812e-02
-8.800811e-02
-1.266013e-01
-1.674215e-01
-1.870974e-01
-1.724512e-01
-1.500642e-01
-1.221808e-01
-7.423770e-02
-3.494164e-02
1.290037e-02
6.129628e-02
1.021629e-01
1.142662e-01
1.273476e-01
1.153122e-01
1.207623e-01
1.055176e-01
5.752822e-02
1.753567e-02
-3.939059e-02
-1.068692e-01
-1.380322e-01
-1.612226e-01
-1.787700e-01
-1.719639e-01
-1.590579e-01
-1.345557e-01
-9.314322e-02
-5.185497e-02
-1.457596e-03
4.876460e-02
8.161746e-02
1.167332e-01
1.330856e-01
1.293231e-01
1.166743e-01
8.943963e-02
4.359896e-02
2.227352e-03
-4.560997e-02
-9.372247e-02
-1.287666e-01
-1.579263e-01
-1.776685e-01
-1.689537e-01
-1.550320e-01
-1.280237e-01
-7.834876e-02
-3.237176e-02
-3.729221e-03
6.399421e-02
9.214021e-02
1.257000e-01
1.466418e-01
1.428631e-01
1.282640e-01
9.630535e-02
4.710883e-02
6.426665e-03
-4.410934e-02
-9.713601e-02
-1.251261e-01
-1.489592e-01
-1.780543e-01
-1.628776e-01
-1.499798e-01
-1.357706e-01
-8.841965e-02
-4.630773e-02
-1.412946e-02
3.853011e-02
6.971892e-02
1.074387e-01
1.316416e-01
1.395976e-01
1.307194e-01
9.509322e-02
3.445515e-02
4.179482e-03
-4.043378e-02
-9.840929e-02
-1.314218e-01
-1.560575e-01
-1.797151e-01
-1.704337e-01
-1.686338e-01
-1.437939e-01
-1.037118e-01
-5.065519e-02
8.802239e-03
6.561134e-02
8.358119e-02
1.055217e-01
1.352729e-01
1.341189e-01
1.255224e-01
1.041080e-01
5.128714e-02
4.835276e-03
-2.724121e-02
-7.456020e-02
-1.168392e-01
-1.465014e-01
-1.727278e-01
-1.769581e-01
-1.564544e-01
-1.275019e-01
-8.888495e-02
-5.356418e-02
-7.709095e-03
5.804482e-02
1.017477e-01
1.344233e-01
1.490457e-01
1.332502e-01
1.123497e-01
1.124117e-01
7.854667e-02
2.845485e-02
-2.328315e-02
-7.407908e-02
-1.261360e-01
-1.558751e-01
-1.626459e-01
-1.617621e-01
-1.590174e-01
-1.399583e-01
-9.012873e-02
-5.203569e-02
-1.418897e-02
4.510209e-02
9.761997e-02
1.287943e-01
1.353129e-01
1.463545e-01
1.295021e-01
1.022911e-01
6.645148e-02
2.004155e-02
-2.801504e-02
-8.385113e-02
-1.222596e-01
-1.440409e-01
-1.703272e-01
-1.804387e-01
-1.746606e-01
-1.390540e-01
-9.156030e-02
-4.184650e-02
3.490125e-04
2.927070e-02
6.680255e-02
1.051686e-01
1.246855e-01
1.395905e-01
1.277750e-01
9.920745e-02
5.838312e-02
1.370128e-02
-2.737800e-02
-7.696290e-02
-1.270647e-01
-1.530675e-01
-1.637873e-01
-1.752568e-01
-1.634476e-01
-1.369165e-01
-1.086982e-01
-7.275501e-02
-2.278039e-02
3.612222e-02
7.823718e-02
1.158524e-01
1.369004e-01
1.400744e-01
1.180051e-01
9.766022e-02
7.443383e-02
2.542632e-02
-2.026256e-02
-6.919926e-02
-1.227268e-01
-1.619218e-01
-1.688098e-01
-1.740663e-01
-1.651685e-01
-1.419967e-01
-1.058204e-01
-5.588599e-02
-2.111540e-02
4.097274e-02
8.421302e-02
1.003309e-01
1.240973e-01
1.409175e-01
1.231060e-01
1.116396e-01
7.335607e-02
1.461825e-02
-2.022679e-02
-6.623992e-02
-1.105328e-01
-1.364664e-01
-1.679610e-01
-1.839807e-01
-1.775329e-01
-1.477406e-01
-1.107224e-01
-5.786018e-02
-2.537283e-02
2.765470e-02
7.273568e-02
9.590390e-02
1.182917e-01
1.387398e-01
1.148494e-01
9.217070e-02
5.876565e-02
5.766734e-03
-2.224496e-02
-7.551021e-02
-1.226796e-01
-1.467036e-01
-1.661599e-01
-1.806534e-01
-1.629967e-01
-1.428368e-01
-1.191604e-01
-6.120401e-02
-2.356304e-02
3.156809e-02
7.603098e-02
9.188131e-02
1.154628e-01
1.319588e-01
1.122707e-01
9.696162e-02
7.060132e-02
1.050197e-02
-3.197695e-02
-7.648643e-02
-1.202661e-01
-1.421990e-01
-1.569498e-01
-1.628595e-01
-1.663545e-01
-1.473366e-01
-1.261098e-01
-6.571093e-02
-3.281622e-02
2.911043e-02
8.103813e-02
1.001772e-01
1.199098e-01
1.314939e-01
1.203274e-01
1.016734e-01
7.069000e-02
2.861132e-02
-1.179422e-02
-6.429540e-02
-1.123157e-01
-1.341642e-01
-1.623706e-01
-1.669798e-01
-1.552171e-01
-1.345066e-01
-9.903339e-02
-5.623899e-02
-2.111111e-02
1.915872e-02
5.856735e-02
8.603312e-02
1.283506e-01
1.461705e-01
1.223299e-01
1.006004e-01
6.656785e-02
2.189324e-02
-8.875234e-03
-4.689610e-02
-1.041688e-01
-1.335966e-01
-1.590888e-01
-1.666046e-01
-1.475060e-01
-1.319410e-01
-1.046955e-01
-4.653719e-02
-2.221200e-02
2.802407e-02
7.609826e-02
9.016757e-02
1.058886e-01
1.276487e-01
1.130828e-01
9.798603e-02
6.944109e-02
1.624110e-02
-1.569427e-02
-7.202229e-02
-1.045480e-01
-1.258408e-01
-1.560918e-01
-1.739148e-01
-1.534809e-01
-1.389127e-01
-1.138472e-01
-6.017783e-02
-2.923246e-02
2.324574e-02
6.771376e-02
9.059509e-02
1.102868e-01
1.197275e-01
1.031675e-01
9.706836e-02
7.347713e-02
1.927011e-02
-1.686767e-02
-6.221694e-02
-1.095647e-01
-1.356026e-01
-1.523076e-01
-1.698059e-01
-1.560208e-01
-1.408721e-01
-1.216611e-01
-7.114423e-02
-3.078820e-02
1.940976e-02
5.154139e-02
7.697698e-02
1.043218e-01
1.274446e-01
1.029015e-01
1.122446e-01
8.398531e-02
1.133281e-02
-1.154643e-02
-5.228127e-02
-1.153412e-01
-1.400220e-01
-1.562272e-01
-1.757709e-01
-1.483989e-01
-1.287658e-01
-1.075729e-01
-6.163198e-02
-3.887833e-02
3.802628e-04
5.509801e-02
8.414266e-02
1.051520e-01
1.224177e-01
1.016422e-01
9.286357e-02
6.291177e-02
1.608288e-02
-1.042910e-02
-5.641410e-02
-1.150600e-01
-1.289593e-01
-1.567820e-01
-1.822020e-01
-1.497720e-01
-1.454967e-01
-1.143632e-01
-7.099289e-02
-5.458912e-02
-5.209840e-03
5.948103e-02
7.968399e-02
1.102313e-01
1.293279e-01
1.141115e-01
1.049025e-01
8.089547e-02
2.029317e-02
-1.710840e-02
-5.761345e-02
-1.027600e-01
-1.249355e-01
-1.365222e-01
-1.736709e-01
-1.684060e-01
-1.530634e-01
-1.281246e-01
-8.188881e-02
-4.962622e-02
4.122015e-03
5.293253e-02
8.349819e-02
1.164362e-01
1.350308e-01
1.211608e-01
1.000192e-01
7.017621e-02
2.720633e-02
-4.954981e-03
-3.655262e-02
-9.134180e-02
-1.274028e-01
-1.573612e-01
-1.811720e-01
-1.598794e-01
-1.503199e-01
-1.224762e-01
-7.491234e-02
-4.914894e-02
1.409221e-02
6.601563e-02
7.689270e-02
1.014021e-01
1.077006e-01
8.528789e-02
9.016839e-02
8.010101e-02
2.888748e-02
-4.658388e-03
-4.918091e-02
-9.859906e-02
-1.260436e-01
-1.467903e-01
-1.806097e-01
-1.690003e-01
-1.554727e-01
-1.278080e-01
-7.301486e-02
-4.020482e-02
4.359249e-03
5.750852e-02
8.358266e-02
1.087527e-01
1.193707e-01
1.090199e-01
9.716401e-02
7.924664e-02
3.479491e-02
-1.499329e-03
-4.877293e-02
-9.218711e-02
-1.184486e-01
-1.506290e-01
-1.678993e-01
-1.566956e-01
-1.503221e-01
-1.202260e-01
-7.735141e-02
-4.139613e-02
9.837552e-04
6.684908e-02
7.745791e-02
1.030473e-01
1.266051e-01
1.036876e-01
1.132861e-01
7.496770e-02
3.014510e-02
2.987477e-03
-5.358680e-02
-9.304197e-02
-1.265512e-01
-1.591323e-01
-1.834493e-01
-1.623065e-01
-1.593997e-01
-1.324726e-01
-8.588240e-02
-5.560568e-02
-6.638320e-03
4.554233e-02
7.043586e-02
9.291659e-02
1.206363e-01
1.171030e-01
1.089096e-01
7.164226e-02
2.050842e-02
-9.342987e-03
-5.257135e-02
-9.193902e-02
-1.328836e-01
-1.640747e-01
-1.829983e-01
-1.785410e-01
-1.626945e-01
-1.242928e-01
-7.623777e-02
-4.013325e-02
5.548669e-04
6.154576e-02
8.212007e-02
9.711751e-02
1.245539e-01
1.159235e-01
1.013343e-01
8.288127e-02
4.390122e-02
8.921282e-04
-4.820628e-02
-1.057753e-01
-1.340947e-01
-1.632624e-01
-1.748975e-01
-1.724695e-01
-1.677400e-01
-1.426286e-01
-9.323910e-02
-6.008014e-02
-1.009535e-02
4.294424e-02
7.583310e-02
9.704932e-02
1.169068e-01
1.133184e-01
9.701433e-02
7.380515e-02
3.225505e-02
4.348608e-03
-4.848947e-02
-9.586891e-02
-1.208564e-01
-1.515430e-01
-1.665393e-01
-1.590558e-01
-1.602391e-01
-1.384584e-01
-1.091721e-01
-5.944185e-02
-1.965260e-02
3.197636e-02
7.443304e-02
1.047335e-01
1.210632e-01
1.137971e-01
1.010227e-01
7.458564e-02
3.733401e-02
-2.915154e-03
-3.548378e-02
-8.981551e-02
-1.231913e-01
-1.504836e-01
-1.803569e-01
-1.701699e-01
-1.610453e-01
-1.355387e-01
-9.997997e-02
-5.485181e-02
-1.352231e-02
3.141956e-02
7.417829e-02
1.122338e-01
1.209664e-01
1.178026e-01
1.054195e-01
8.282872e-02
3.529772e-02
1.909216e-04
-4.080471e-02
-1.007676e-01
-1.280085e-01
-1.563376e-01
-1.717213e-01
-1.674338e-01
-1.595884e-01
-1.361152e-01
-1.026124e-01
-6.975706e-02
-7.111563e-03
3.924174e-02
7.631577e-02
1.028430e-01
1.145458e-01
1.302716e-01
1.155109e-01
1.012603e-01
5.469322e-02
7.725702e-03
-4.214260e-02
-9.626670e-02
-1.200725e-01
-1.555142e-01
-1.701570e-01
-1.766446e-01
-1.643015e-01
-1.361207e-01
-1.035031e-01
-5.201320e-02
-2.037142e-02
2.584663e-02
7.318900e-02
1.068203e-01
1.343405e-01
1.407103e-01
1.227417e-01
9.809935e-02
4.914739e-02
3.272147e-04
-4.379640e-02
-9.288934e-02
-1.244659e-01
-1.491108e-01
-1.542377e-01
-1.689397e-01
-1.628933e-01
-1.484153e-01
-1.057206e-01
-5.852288e-02
-2.737891e-02
2.811776e-02
7.453115e-02
9.916230e-02
1.316639e-01
1.283810e-01
1.114729e-01
8.406089e-02
4.828174e-02
-2.452104e-03
-4.325673e-02
-9.624531e-02
-1.189923e-01
-1.365995e-01
-1.522104e-01
-1.531153e-01
-1.671466e-01
-1.420493e-01
-1.029191e-01
-5.116511e-02
-8.721405e-03
4.203390e-02
8.087314e-02
1.042068e-01
1.281893e-01
1.359269e-01
1.064432e-01
8.355839e-02
4.883875e-02
1.917314e-02
-2.259503e-02
-6.960752e-02
-1.055410e-01
-1.455334e-01
-1.618963e-01
-1.660371e-01
-1.469704e-01
-1.371228e-01
-1.094914e-01
-5.385282e-02
-2.252270e-02
3.480830e-02
8.638842e-02
1.041307e-01
1.225440e-01
1.325634e-01
1.113249e-01
9.998226e-02
6.863215e-02
2.359679e-02
-1.519311e-02
-6.803134e-02
-1.189366e-01
-1.422377e-01
-1.694462e-01
-1.857262e-01
-1.649154e-01
-1.466961e-01
-1.172197e-01
-6.018429e-02
-2.068234e-02
2.105488e-02
6.789204e-02
9.597316e-02
1.172186e-01
1.463562e-01
1.176547e-01
9.897692e-02
6.480648e-02
3.132550e-02
-1.511992e-02
-5.795160e-02
-1.024303e-01
-1.435820e-01
-1.610903e-01
-1.750897e-01
-1.494634e-01
-1.297742e-01
-1.067984e-01
-5.445092e-02
-2.498052e-02
2.770787e-02
6.659396e-02
8.267846e-02
1.051681e-01
1.303904e-01
1.198729e-01
1.066784e-01
7.739783e-02
1.422932e-02
-1.758957e-02
-8.055656e-02
-1.018633e-01
-1.361330e-01
-1.546528e-01
-1.723561e-01
-1.487273e-01
-1.297482e-01
-1.058358e-01
-5.234588e-02
-2.506294e-02
3.595046e-02
7.796058e-02
1.046696e-01
1.223887e-01
1.329518e-01
1.135115e-01
1.008933e-01
7.326081e-02
2.114050e-02
-2.030513e-02
-6.275430e-02
-1.096807e-01
-1.324828e-01
-1.588391e-01
-1.622624e-01
-1.510480e-01
-1.357752e-01
-1.029364e-01
-4.832466e-02
-2.468284e-02
1.750792e-02
7.822069e-02
1.050143e-01
1.260616e-01
1.481808e-01
1.195380e-01
1.060868e-01
7.585336e-02
1.817921e-02
-8.515904e-03
-6.298526e-02
-1.040256e-01
-1.290875e-01
-1.481869e-01
-1.734849e-01
-1.623323e-01
-1.439600e-01
-1.101320e-01
-5.330635e-02
-3.232035e-02
1.534196e-02
6.552168e-02
9.089069e-02
1.218473e-01
1.332881e-01
1.168548e-01
1.077568e-01
8.757538e-02
4.257818e-02
-2.563785e-03
-5.559887e-02
-1.059815e-01
-1.274345e-01
-1.381472e-01
-1.526752e-01
-1.526856e-01
-1.465936e-01
-1.140376e-01
-5.935431e-02
-2.386880e-02
1.190632e-02
7.043194e-02
8.287892e-02
1.165177e-01
1.588559e-01
1.293806e-01
1.152876e-01
7.717168e-02
2.104254e-02
-2.360835e-03
-5.170181e-02
-1.055907e-01
-1.429651e-01
-1.508628e-01
-1.786992e-01
-1.421869e-01
-1.345640e-01
-1.088069e-01
-5.571403e-02
-2.174213e-02
2.632772e-02
7.119704e-02
9.183511e-02
1.103048e-01
1.355644e-01
1.288606e-01
1.146129e-01
8.660812e-02
3.212978e-02
-7.639732e-03
-5.433347e-02
-1.017418e-01
-1.336445e-01
-1.539754e-01
-1.587907e-01
-1.451452e-01
-1.222307e-01
-1.052174e-01
-5.878423e-02
-2.356359e-02
2.222816e-02
7.636512e-02
9.923150e-02
1.196696e-01
1.296004e-01
1.140739e-01
9.751365e-02
7.193282e-02
1.675163e-02
-2.905023e-03
-4.112203e-02
-1.012640e-01
-1.211282e-01
-1.434856e-01
-1.734854e-01
-1.549289e-01
-1.391036e-01
-1.040281e-01
-6.435120e-02
-1.430857e-02
2.281925e-02
7.459141e-02
9.113838e-02
1.117579e-01
1.365138e-01
1.153425e-01
1.051800e-01
8.684415e-02
3.283927e-02
1.407978e-03
-4.775135e-02
-9.766228e-02
-1.275938e-01
-1.436691e-01
-1.634958e-01
-1.520528e-01
-1.420809e-01
-1.224762e-01
-5.734996e-02
-2.976797e-02
1.287873e-02
6.472483e-02
1.037963e-01
1.226520e-01
1.389686e-01
1.230446e-01
9.694520e-02
7.143527e-02
3.911981e-02
1.454035e-02
-2.597071e-02
-9.997997e-02
-1.326273e-01
-1.504088e-01
-1.580423e-01
-1.443348e-01
-1.307926e-01
-1.137679e-01
-6.429482e-02
-2.624275e-02
1.883958e-02
6.818227e-02
8.052279e-02
1.037528e-01
1.356505e-01
1.319565e-01
1.176645e-01
8.718698e-02
3.266410e-02
3.405241e-03
-3.976081e-02
-8.181041e-02
-1.176943e-01
-1.397438e-01
-1.702298e-01
-1.524926e-01
-1.475833e-01
-1.222867e-01
-7.165328e-02
-4.158001e-02
1.229159e-02
6.143000e-02
9.053349e-02
1.107826e-01
1.415110e-01
1.279580e-01
1.176614e-01
9.469181e-02
4.444215e-02
6.638722e-03
-4.203139e-02
-8.671582e-02
-1.177349e-01
-1.410587e-01
-1.568286e-01
-1.487571e-01
-1.410991e-01
-1.189384e-01
-6.753736e-02
-3.839396e-02
1.002286e-02
5.855460e-02
8.176820e-02
1.123919e-01
1.373226e-01
1.080867e-01
1.073175e-01
7.555880e-02
4.258299e-02
1.827642e-02
-3.071328e-02
-8.144873e-02
-1.138556e-01
-1.408193e-01
-1.560222e-01
-1.494458e-01
-1.356258e-01
-1.214561e-01
-7.136270e-02
-3.257655e-02
1.230002e-02
6.215919e-02
8.317430e-02
1.069693e-01
1.360239e-01
1.225700e-01
1.078950e-01
9.691892e-02
4.462467e-02
1.986086e-03
-2.906374e-02
-8.560238e-02
-1.173008e-01
-1.369701e-01
-1.619427e-01
-1.497237e-01
-1.440312e-01
-1.150646e-01
-6.506982e-02
-3.338568e-02
1.074338e-02
6.286697e-02
9.590023e-02
1.209889e-01
1.403010e-01
1.291769e-01
1.175170e-01
7.586866e-02
4.339455e-02
1.213376e-02
-3.421181e-02
-8.043344e-02
-1.037415e-01
-1.319165e-01
-1.523129e-01
-1.488939e-01
-1.395138e-01
-1.112751e-01
-6.735893e-02
-2.797978e-02
1.025341e-02
5.581874e-02
9.095202e-02
1.054960e-01
1.405393e-01
1.277327e-01
1.117253e-01
8.968161e-02
5.149948e-02
6.818705e-03
-2.783231e-02
-7.958893e-02
-1.197560e-01
-1.309358e-01
-1.447582e-01
-1.426216e-01
-1.432486e-01
-1.232047e-01
-8.672030e-02
-5.128482e-02
3.914240e-03
6.484377e-02
8.064606e-02
1.194614e-01
1.265057e-01
1.346801e-01
1.208901e-01
9.398364e-02
5.690810e-02
2.092499e-02
-1.637218e-02
-6.660517e-02
-1.016535e-01
-1.272516e-01
-1.508023e-01
-1.454677e-01
-1.422445e-01
-1.206855e-01
-7.532196e-02
-4.034234e-02
2.487618e-03
5.750016e-02
9.012137e-02
1.077735e-01
1.290913e-01
1.323400e-01
1.102839e-01
9.379752e-02
6.295084e-02
1.970500e-02
-1.902632e-02
-8.163632e-02
-1.034283e-01
-1.313868e-01
-1.525023e-01
-1.549384e-01
-1.444884e-01
-1.121680e-01
-8.239739e-02
-3.355007e-02
5.113240e-03
3.881725e-02
7.853808e-02
1.221565e-01
1.335893e-01
1.384905e-01
1.188792e-01
9.598600e-02
7.451604e-02
3.016658e-02
-2.430793e-02
-7.069339e-02
-1.117166e-01
-1.358956e-01
-1.473032e-01
-1.511205e-01
-1.448098e-01
-1.362810e-01
-9.023663e-02
-3.703732e-02
-2.834710e-03
4.003913e-02
8.481240e-02
1.154699e-01
1.404363e-01
1.422608e-01
1.335817e-01
1.022380e-01
6.345095e-02
2.473624e-02
-2.117280e-02
-7.248563e-02
-1.131487e-01
-1.381474e-01
-1.531636e-01
-1.539599e-01
-1.409743e-01
-1.136931e-01
-8.972187e-02
-3.668683e-02
-8.670610e-04
3.756268e-02
7.557146e-02
1.136407e-01
1.310766e-01
1.420263e-01
1.276880e-01
1.035753e-01
5.040202e-02
6.626596e-03
-2.929546e-02
-6.057481e-02
-1.017444e-01
-1.288606e-01
-1.482743e-01
-1.510331e-01
-1.393369e-01
-1.071211e-01
-7.307712e-02
-3.917478e-02
3.130673e-03
5.686602e-02
1.023529e-01
1.287443e-01
1.328714e-01
1.380901e-01
1.251134e-01
1.105246e-01
8.341591e-02
3.172893e-02
-3.025293e-03
-5.473869e-02
-8.562212e-02
-1.159210e-01
-1.286699e-01
-1.520482e-01
-1.430880e-01
-1.239075e-01
-9.347195e-02
-4.009831e-02
-7.445558e-03
5.006818e-02
9.759676e-02
1.128087e-01
1.303027e-01
1.413567e-01
1.243348e-01
1.084753e-01
8.302347e-02
2.343519e-02
-1.540957e-02
-5.972645e-02
-9.677573e-02
-1.054417e-01
-1.404318e-01
-1.594167e-01
-1.447618e-01
-1.280207e-01
-9.703842e-02
-3.151690e-02
-1.824378e-02
4.043829e-02
8.456009e-02
1.215091e-01
1.411972e-01
1.486828e-01
1.295107e-01
1.048517e-01
8.284444e-02
4.096645e-02
5.177119e-03
-5.063633e-02
-9.828775e-02
-1.237137e-01
-1.440801e-01
-1.475268e-01
-1.316152e-01
-1.147037e-01
-8.756476e-02
-3.265344e-02
-3.869205e-03
3.441695e-02
9.184308e-02
1.068858e-01
1.237706e-01
1.502463e-01
1.413841e-01
1.138441e-01
7.664763e-02
2.912127e-02
-4.661924e-03
-4.731993e-02
-8.512511e-02
-1.125521e-01
-1.438719e-01
-1.621168e-01
-1.480644e-01
-1.209607e-01
-8.765358e-02
-3.524151e-02
-5.195466e-03
3.916647e-02
8.885097e-02
1.095840e-01
1.196712e-01
1.280123e-01
1.146309e-01
1.020954e-01
6.530101e-02
3.647801e-02
5.870073e-03
-5.568149e-02
-9.709901e-02
-1.286289e-01
-1.495416e-01
-1.563495e-01
-1.326621e-01
-1.163069e-01
-9.499913e-02
-5.246454e-02
-1.557039e-02
4.319701e-02
8.359426e-02
1.083899e-01
1.188169e-01
1.304334e-01
1.203624e-01
1.140631e-01
8.764248e-02
3.320394e-02
-4.009781e-03
-5.867440e-02
-9.861738e-02
-1.273435e-01
-1.376597e-01
-1.570003e-01
-1.403124e-01
-1.253157e-01
-9.488218e-02
-4.848072e-02
-1.857277e-02
2.370231e-02
7.132143e-02
9.754910e-02
1.146686e-01
1.425279e-01
1.276431e-01
1.085406e-01
8.717188e-02
3.727189e-02
2.171697e-03
-6.506197e-02
-9.813093e-02
-1.237426e-01
-1.483061e-01
-1.526782e-01
-1.299976e-01
-1.228217e-01
-9.807126e-02
-4.329076e-02
-2.597372e-02
1.324854e-02
6.182439e-02
8.666191e-02
1.068272e-01
1.432935e-01
1.221431e-01
1.029960e-01
8.326021e-02
3.246778e-02
-7.446320e-04
-4.070958e-02
-8.873019e-02
-1.133612e-01
-1.373995e-01
-1.502163e-01
-1.290589e-01
-1.241014e-01
-1.036209e-01
-5.123848e-02
-2.462777e-02
2.251620e-02
7.681946e-02
9.783828e-02
1.177796e-01
1.369377e-01
1.256966e-01
1.108952e-01
8.030722e-02
2.832995e-02
-1.533695e-03
-5.497425e-02
-9.155425e-02
-1.205837e-01
-1.401550e-01
-1.597542e-01
-1.418813e-01
-1.380696e-01
-1.122012e-01
-5.691518e-02
-2.089728e-02
3.000899e-02
8.200557e-02
8.742523e-02
1.128720e-01
1.340986e-01
1.134337e-01
1.084900e-01
7.640961e-02
2.325774e-02
1.802107e-03
-2.449413e-02
-7.218225e-02
-1.076644e-01
-1.339982e-01
-1.593761e-01
-1.429722e-01
-1.177618e-01
-9.163553e-02
-5.058686e-02
-2.346761e-02
2.633611e-02
7.170071e-02
9.707130e-02
1.174339e-01
1.395249e-01
1.216074e-01
1.129833e-01
9.270368e-02
4.044287e-02
2.967401e-03
-4.510709e-02
-9.152434e-02
-1.186711e-01
-1.369417e-01
-1.506231e-01
-1.338992e-01
-1.277755e-01
-9.369002e-02
-3.962349e-02
-2.453676e-02
4.134130e-02
7.430534e-02
1.034933e-01
1.276063e-01
1.399860e-01
1.200629e-01
1.136855e-01
1.012259e-01
4.859451e-02
1.873961e-02
-3.436042e-02
-8.867963e-02
-1.133907e-01
-1.274083e-01
-1.465665e-01
-1.392625e-01
-1.244837e-01
-1.012719e-01
-4.788141e-02
-1.065364e-02
1.981734e-02
7.053648e-02
9.987907e-02
1.308996e-01
1.585595e-01
1.421465e-01
1.313545e-01
9.461126e-02
5.100751e-02
8.898941e-03
-2.549265e-02
-7.442406e-02
-1.072688e-01
-1.187431e-01
-1.324469e-01
-1.269240e-01
-1.182470e-01
-9.347878e-02
-5.875168e-02
-1.841115e-02
2.773647e-02
8.138602e-02
1.053636e-01
1.340582e-01
1.454160e-01
1.297751e-01
1.163371e-01
9.589928e-02
5.878733e-02
3.666190e-02
-1.784178e-02
-6.175832e-02
-1.032061e-01
-1.197386e-01
-1.415019e-01
-1.316691e-01
-1.259269e-01
-1.103399e-01
-4.861867e-02
-9.389200e-03
3.457709e-02
8.999874e-02
1.086818e-01
1.408776e-01
1.631135e-01
1.518136e-01
1.423124e-01
1.016241e-01
5.769216e-02
2.714121e-02
-4.465892e-03
-6.404720e-02
-9.337753e-02
-1.202430e-01
-1.392684e-01
-1.406411e-01
-1.222081e-01
-9.752187e-02
-5.639981e-02
-1.422895e-02
4.142347e-02
8.294471e-02
1.086113e-01
1.286115e-01
1.471313e-01
1.415105e-01
1.417367e-01
1.118758e-01
6.736431e-02
2.530494e-02
-1.642625e-02
-6.294836e-02
-1.014622e-01
-1.197853e-01
-1.477650e-01
-1.351931e-01
-1.207483e-01
-9.376074e-02
-4.641126e-02
-2.315573e-02
2.002366e-02
6.669933e-02
1.051893e-01
1.297742e-01
1.481111e-01
1.435056e-01
1.345590e-01
1.183427e-01
7.145144e-02
3.408395e-02
-1.538699e-02
-7.212781e-02
-1.004602e-01
-1.195799e-01
-1.493928e-01
-1.384686e-01
-1.303518e-01
-1.063140e-01
-6.149211e-02
-1.878241e-02
2.396401e-02
7.614766e-02
1.146029e-01
1.314080e-01
1.508250e-01
1.361220e-01
1.266737e-01
1.062527e-01
5.618922e-02
2.553291e-02
-1.741743e-02
-6.041891e-02
-9.728391e-02
-1.219720e-01
-1.475209e-01
-1.450198e-01
-1.324048e-01
-1.095951e-01
-6.243258e-02
-3.132110e-02
1.100327e-02
5.687004e-02
9.218277e-02
1.183906e-01
1.413542e-01
1.431786e-01
1.328476e-01
1.009238e-01
6.045970e-02
2.665969e-02
-1.449920e-02
-5.883918e-02
-8.554925e-02
-1.206934e-01
-1.429708e-01
-1.314167e-01
-1.272955e-01
-1.112523e-01
-6.955704e-02
-3.783340e-02
7.585644e-03
6.511399e-02
9.573325e-02
1.225739e-01
1.387658e-01
1.281549e-01
1.251392e-01
1.119785e-01
7.101277e-02
3.498073e-02
-9.450267e-03
-6.382417e-02
-1.070554e-01
-1.300872e-01
-1.457294e-01
-1.386369e-01
-1.346851e-01
-1.064231e-01
-6.957126e-02
-3.184118e-02
1.159181e-02
6.030153e-02
1.084264e-01
1.298793e-01
1.488470e-01
1.575734e-01
1.457197e-01
1.132714e-01
8.181752e-02
3.528423e-02
-7.188385e-03
-5.233610e-02
-8.932319e-02
-1.154197e-01
-1.421089e-01
-1.483077e-01
-1.367116e-01
-1.199577e-01
-8.749009e-02
-3.696131e-02
3.465117e-03
6.028506e-02
9.804559e-02
1.290846e-01
1.479119e-01
1.536695e-01
1.465377e-01
1.234750e-01
8.683234e-02
4.042073e-02
2.369457e-03
-4.534332e-02
-1.100503e-01
-1.287206e-01
-1.455654e-01
-1.459929e-01
-1.333813e-01
-1.086535e-01
-8.363321e-02
-4.228434e-02
8.657064e-03
6.631289e-02
1.020416e-01
1.197485e-01
1.391662e-01
1.562900e-01
1.391470e-01
1.199404e-01
8.218681e-02
2.392975e-02
-1.143514e-02
-5.247660e-02
-9.401125e-02
-1.221052e-01
-1.502514e-01
-1.684197e-01
-1.622770e-01
-1.383594e-01
-8.912195e-02
-3.853692e-02
2.148022e-03
5.618024e-02
9.550418e-02
1.271306e-01
1.486634e-01
1.638543e-01
1.433544e-01
1.202236e-01
9.122650e-02
3.797156e-02
-5.162505e-03
-4.883035e-02
-1.050888e-01
-1.347397e-01
-1.484697e-01
-1.539008e-01
-1.473904e-01
-1.225290e-01
-8.701002e-02
-4.572763e-02
-7.081206e-03
5.003598e-02
9.472632e-02
1.212953e-01
1.394967e-01
1.549310e-01
1.372297e-01
1.170040e-01
8.105893e-02
3.530697e-02
-3.812881e-03
-5.715934e-02
-9.296116e-02
-1.278403e-01
-1.544672e-01
-1.606642e-01
-1.508429e-01
-1.308452e-01
-9.017821e-02
-3.627604e-02
-1.133145e-02
3.985823e-02
8.798339e-02
1.138584e-01
1.443839e-01
1.671866e-01
1.534844e-01
1.229430e-01
8.566890e-02
4.292624e-02
7.493476e-03
-3.908119e-02
-9.641875e-02
-1.313892e-01
-1.488288e-01
-1.555266e-01
-1.372610e-01
-1.148375e-01
-9.305803e-02
-5.407527e-02
-1.945335e-02
4.091218e-02
9.262142e-02
1.182119e-01
1.350813e-01
1.536564e-01
1.419582e-01
1.346098e-01
9.827144e-02
4.718987e-02
-2.157751e-03
-6.193285e-02
-9.956419e-02
-1.154430e-01
-1.416233e-01
-1.548916e-01
-1.441801e-01
-1.236369e-01
-8.480428e-02
-3.257019e-02
4.646486e-03
4.777395e-02
9.647968e-02
1.179331e-01
1.418082e-01
1.557318e-01
1.385738e-01
1.195613e-01
9.363208e-02
4.180956e-02
5.912114e-03
-5.066761e-02
-9.022080e-02
-1.117937e-01
-1.339206e-01
-1.567217e-01
-1.413404e-01
-1.310954e-01
-1.012477e-01
-3.551775e-02
-4.319889e-03
5.136536e-02
9.979966e-02
1.220890e-01
1.411729e-01
1.569040e-01
1.330213e-01
1.221334e-01
9.643323e-02
5.316088e-02
2.142081e-02
-3.550916e-02
-8.696803e-02
-1.144341e-01
-1.274208e-01
-1.478171e-01
-1.305808e-01
-1.139064e-01
-9.594030e-02
-3.906884e-02
-5.191543e-03
5.100543e-02
9.360991e-02
1.181105e-01
1.449454e-01
1.619643e-01
1.390106e-01
1.302931e-01
9.682433e-02
4.260326e-02
1.570649e-02
-3.042133e-02
-8.737954e-02
-1.207448e-01
-1.467790e-01
-1.568418e-01
-1.294748e-01
-1.239193e-01
-8.983465e-02
-3.529515e-02
-1.080699e-02
4.471403e-02
8.998017e-02
1.149426e-01
1.325593e-01
1.593381e-01
1.435506e-01
1.281985e-01
9.388679e-02
3.461433e-02
1.056674e-02
-3.513343e-02
-8.558436e-02
-1.146769e-01
-1.400462e-01
-1.638488e-01
-1.411458e-01
-1.298767e-01
-9.891459e-02
-5.248355e-02
-2.374727e-02
2.496513e-02
7.613993e-02
1.064051e-01
1.287234e-01
1.435033e-01
1.243878e-01
1.194132e-01
8.672498e-02
4.386421e-02
9.358167e-03
-3.833022e-02
-8.716414e-02
-1.162574e-01
-1.298641e-01
-1.553233e-01
-1.446818e-01
-1.394768e-01
-1.143207e-01
-6.485379e-02
-2.737923e-02
2.548831e-02
7.672706e-02
9.248672e-02
1.248611e-01
1.554488e-01
1.510849e-01
1.291419e-01
1.028374e-01
4.057283e-02
8.596844e-03
-2.555625e-02
-7.178973e-02
-9.722240e-02
-1.400400e-01
-1.568989e-01
-1.409382e-01
-1.340867e-01
-1.069361e-01
-5.941512e-02
-3.159378e-02
1.975947e-02
7.167307e-02
9.845262e-02
1.214035e-01
1.494326e-01
1.301068e-01
1.241724e-01
1.012678e-01
4.104575e-02
4.451513e-03
-4.145752e-02
-9.671897e-02
-1.236166e-01
-1.431711e-01
-1.565810e-01
-1.466025e-01
-1.363006e-01
-1.062830e-01
-6.451236e-02
-3.266842e-02
1.607505e-02
7.675712e-02
1.053212e-01
1.254836e-01
1.411665e-01
1.231933e-01
1.051068e-01
8.461145e-02
4.633990e-02
7.067972e-03
-3.618553e-02
-8.431387e-02
-1.176664e-01
-1.446145e-01
-1.647131e-01
-1.570812e-01
-1.471960e-01
-1.091647e-01
-6.192665e-02
-4.011731e-02
2.118725e-02
6.839103e-02
9.357717e-02
1.199898e-01
1.400037e-01
1.180395e-01
1.172663e-01
9.461603e-02
3.950281e-02
-7.755651e-04
-4.588215e-02
-9.112531e-02
-1.076494e-01
-1.267768e-01
-1.466910e-01
-1.527603e-01
-1.438998e-01
-1.134897e-01
-6.683331e-02
-3.097011e-02
2.463786e-02
6.425136e-02
9.233996e-02
1.201819e-01
1.358804e-01
1.203609e-01
1.171251e-01
9.534662e-02
4.778854e-02
1.608701e-02
-2.786275e-02
-8.100894e-02
-1.164536e-01
-1.433723e-01
-1.678998e-01
-1.502306e-01
-1.359378e-01
-1.101190e-01
-6.204641e-02
-3.422005e-02
9.424158e-03
6.582785e-02
9.428325e-02
1.117621e-01
1.316113e-01
1.112584e-01
1.080879e-01
9.548844e-02
4.823736e-02
9.720913e-03
-3.977542e-02
-9.083021e-02
-1.137775e-01
-1.390938e-01
-1.679159e-01
-1.568214e-01
-1.508061e-01
-1.238439e-01
-7.830844e-02
-4.406595e-02
-7.732842e-03
5.149262e-02
8.866273e-02
1.063503e-01
1.357974e-01
1.207622e-01
1.051876e-01
9.192593e-02
5.269424e-02
4.405024e-03
-3.758524e-02
-9.292471e-02
-1.287953e-01
-1.539706e-01
-1.756990e-01
-1.570683e-01
-1.472550e-01
-1.087984e-01
-6.344715e-02
-3.338184e-02
5.595521e-04
5.124961e-02
8.209053e-02
1.059273e-01
1.272097e-01
1.291256e-01
1.142012e-01
8.830169e-02
4.746264e-02
1.060646e-02
-3.911679e-02
-8.405156e-02
-1.104792e-01
-1.286359e-01
-1.566199e-01
-1.543890e-01
-1.431198e-01
-1.257528e-01
-7.983345e-02
-3.438259e-02
-5.491567e-04
4.143153e-02
7.889288e-02
1.055467e-01
1.269420e-01
1.306679e-01
1.149537e-01
9.935452e-02
5.640374e-02
1.148935e-02
-2.896193e-02
-8.474230e-02
-1.180101e-01
-1.407686e-01
-1.577112e-01
-1.537712e-01
-1.437611e-01
-1.178960e-01
-7.672080e-02
-4.010503e-02
-2.583837e-03
4.591694e-02
9.400199e-02
1.162853e-01
1.242169e-01
1.234058e-01
1.033135e-01
8.876155e-02
5.802224e-02
1.976880e-02
-1.799878e-02
-7.056146e-02
-1.129211e-01
-1.314837e-01
-1.537973e-01
-1.658902e-01
-1.495426e-01
-1.346218e-01
-8.389165e-02
-4.075664e-02
-2.477682e-03
4.044664e-02
7.978567e-02
1.018733e-01
1.263097e-01
1.332148e-01
1.204548e-01
8.953319e-02
4.997243e-02
1.253651e-02
-3.231000e-02
-7.825627e-02
-1.166740e-01
-1.432257e-01
-1.628445e-01
-1.681947e-01
-1.491908e-01
-1.294339e-01
-9.602521e-02
-3.670667e-02
6.579777e-03
4.973755e-02
8.620541e-02
1.136725e-01
1.234561e-01
1.245239e-01
1.228772e-01
9.771954e-02
6.002632e-02
2.757338e-02
-1.958293e-02
-7.440499e-02
-1.143067e-01
-1.386362e-01
-1.554714e-01
-1.559690e-01
-1.419915e-01
-1.238242e-01
-8.687176e-02
-4.356229e-02
-1.404329e-04
4.615679e-02
8.916643e-02
1.134789e-01
1.346941e-01
1.361162e-01
1.211936e-01
1.042610e-01
6.663057e-02
2.178614e-02
-1.315654e-02
-7.628966e-02
-1.106955e-01
-1.290837e-01
-1.473999e-01
-1.505363e-01
-1.385341e-01
-1.416421e-01
-1.052523e-01
-6.076306e-02
-2.506476e-02
2.421917e-02
7.058942e-02
9.246156e-02
1.261084e-01
1.263863e-01
1.274475e-01
1.100765e-01
6.298065e-02
2.116024e-02
-1.264736e-02
-5.817034e-02
-1.037594e-01
-1.279353e-01
-1.524731e-01
-1.683635e-01
-1.540153e-01
-1.316606e-01
-9.092737e-02
-4.992407e-02
-2.628434e-02
2.785151e-02
6.746314e-02
1.063141e-01
1.322878e-01
1.462638e-01
1.187275e-01
1.019639e-01
6.642842e-02
1.436705e-02
-1.596788e-02
-6.379051e-02
-1.087457e-01
-1.334202e-01
-1.463326e-01
-1.640736e-01
-1.545960e-01
-1.365885e-01
-1.040238e-01
-5.241897e-02
-2.027921e-02
3.506998e-02
8.421440e-02
1.052896e-01
1.233889e-01
1.352166e-01
1.150827e-01
9.189136e-02
6.686254e-02
1.735786e-02
-1.406074e-02
-6.768384e-02
-1.125011e-01
-1.361243e-01
-1.677882e-01
-1.878539e-01
-1.677704e-01
-1.616786e-01
-1.262811e-01
-7.068460e-02
-2.760341e-02
2.824925e-02
7.797282e-02
1.162948e-01
1.381854e-01
1.378741e-01
1.347899e-01
1.146354e-01
6.895950e-02
2.163636e-02
-2.253106e-02
-6.876499e-02
-1.107038e-01
-1.349837e-01
-1.567617e-01
-1.731440e-01
-1.582662e-01
-1.355566e-01
-1.036723e-01
-4.806226e-02
-2.051972e-02
3.494118e-02
7.601963e-02
1.127418e-01
1.217199e-01
1.401095e-01
1.257177e-01
1.064944e-01
6.997471e-02
1.661367e-02
-7.652092e-03
-6.416971e-02
-1.043179e-01
-1.279281e-01
-1.523118e-01
-1.739612e-01
-1.562732e-01
-1.326452e-01
-1.053685e-01
-5.785578e-02
-2.376611e-02
2.377574e-02
7.037220e-02
1.025335e-01
1.251584e-01
1.399508e-01
1.234603e-01
1.079749e-01
7.585677e-02
2.607322e-02
-1.143582e-02
-6.288984e-02
-1.144635e-01
-1.380489e-01
-1.571445e-01
-1.705901e-01
-1.583582e-01
-1.445154e-01
-1.157806e-01
-6.203068e-02
-2.899388e-02
1.725061e-02
7.154131e-02
1.056322e-01
1.182406e-01
1.279003e-01
1.090713e-01
1.036757e-01
6.985753e-02
3.263040e-02
-2.458457e-03
-5.695124e-02
-1.114401e-01
-1.385358e-01
-1.509383e-01
-1.698403e-01
-1.595426e-01
-1.380487e-01
-1.068514e-01
-5.331687e-02
-2.483647e-02
2.391974e-02
7.253670e-02
9.630551e-02
1.253743e-01
1.502558e-01
1.307749e-01
1.126777e-01
7.785367e-02
3.186265e-02
-2.395930e-03
-5.412166e-02
-9.701836e-02
-1.255302e-01
-1.632931e-01
-1.779148e-01
-1.575013e-01
-1.418993e-01
-1.118985e-01
-5.260779e-02
-2.100410e-02
2.353862e-02
6.775951e-02
9.573963e-02
1.071532e-01
1.274726e-01
1.117564e-01
1.122404e-01
8.607710e-02
3.659862e-02
1.020968e-03
-6.328651e-02
-1.058944e-01
-1.308049e-01
-1.468823e-01
-1.689121e-01
-1.551793e-01
-1.463176e-01
-1.152565e-01
-6.251783e-02
-3.339020e-02
8.775842e-03
5.579778e-02
8.919033e-02
1.179292e-01
1.438642e-01
1.318706e-01
1.125070e-01
8.599257e-02
3.598459e-02
6.277644e-04
-5.503561e-02
-1.001795e-01
-1.397919e-01
-1.584726e-01
-1.724948e-01
-1.596723e-01
-1.435532e-01
-1.123773e-01
-6.195157e-02
-2.004140e-02
1.925581e-02
7.381868e-02
9.353214e-02
1.134023e-01
1.366188e-01
1.285734e-01
1.179054e-01
9.008712e-02
4.230461e-02
4.763423e-03
-4.497056e-02
-9.814933e-02
-1.339841e-01
-1.503609e-01
-1.633918e-01
-1.595203e-01
-1.491211e-01
-1.201160e-01
-7.332441e-02
-4.088827e-02
7.896950e-03
5.252319e-02
8.720164e-02
1.098079e-01
1.377038e-01
1.249209e-01
1.103941e-01
8.196858e-02
3.281024e-02
-3.767662e-03
-4.491317e-02
-9.454200e-02
-1.242200e-01
-1.487221e-01
-1.648204e-01
-1.560376e-01
-1.439681e-01
-1.209877e-01
-7.210050e-02
-4.362011e-02
3.913368e-03
6.336091e-02
1.026935e-01
1.156573e-01
1.347126e-01
1.176901e-01
9.878246e-02
9.231900e-02
4.835615e-02
3.757225e-03
-4.868106e-02
-9.060106e-02
-1.258966e-01
-1.510518e-01
-1.672347e-01
-1.561040e-01
-1.614672e-01
-1.293880e-01
-6.918594e-02
-4.029571e-02
4.536992e-03
5.908195e-02
8.219104e-02
1.104620e-01
1.379057e-01
1.237432e-01
1.173667e-01
8.802157e-02
3.673638e-02
4.686948e-03
-4.205998e-02
-8.369601e-02
-1.126879e-01
-1.451037e-01
-1.651424e-01
-1.543971e-01
-1.458131e-01
-1.205786e-01
-6.596700e-02
-3.987805e-02
5.222348e-03
6.073767e-02
8.869967e-02
1.107161e-01
1.366936e-01
1.150616e-01
1.095217e-01
9.459530e-02
3.472472e-02
1.169903e-02
-3.349125e-02
-8.939286e-02
-1.183478e-01
-1.494844e-01
-1.692892e-01
-1.646902e-01
-1.537173e-01
-1.255883e-01
-8.209009e-02
-4.367785e-02
7.886499e-03
5.996447e-02
8.948520e-02
1.144454e-01
1.313549e-01
1.302339e-01
1.075277e-01
7.880487e-02
4.257323e-02
2.648030e-03
-4.134017e-02
-9.018914e-02
-1.244944e-01
-1.559685e-01
-1.745643e-01
-1.625085e-01
-1.566098e-01
-1.439630e-01
-1.050714e-01
-5.602788e-02
-1.022315e-02
4.413912e-02
8.396427e-02
1.078429e-01
1.266825e-01
1.199590e-01
1.176047e-01
8.939073e-02
3.910086e-02
1.038538e-02
-3.695222e-02
-9.506891e-02
-1.296848e-01
-1.517112e-01
-1.788152e-01
-1.714890e-01
-1.568191e-01
-1.452991e-01
-9.856208e-02
-5.671709e-02
-1.993523e-03
4.959872e-02
8.790848e-02
1.185988e-01
1.229085e-01
1.124095e-01
1.089493e-01
7.858969e-02
2.747218e-02
5.282511e-03
-3.752414e-02
-8.358897e-02
-1.131590e-01
-1.464285e-01
-1.734897e-01
-1.723436e-01
-1.567651e-01
-1.210383e-01
-7.915258e-02
-4.258613e-02
-1.536385e-03
4.214125e-02
7.181723e-02
9.892201e-02
1.229025e-01
1.240241e-01
1.152240e-01
9.751565e-02
4.205222e-02
-4.146620e-03
-4.061181e-02
-9.395096e-02
-1.231746e-01
-1.396106e-01
-1.584504e-01
-1.656086e-01
-1.468208e-01
-1.290759e-01
-9.157608e-02
-4.955633e-02
-1.958698e-02
3.506096e-02
7.639552e-02
9.503243e-02
1.212036e-01
1.176944e-01
1.082570e-01
8.570482e-02
4.756944e-02
1.574952e-02
-3.639133e-02
-9.624638e-02
-1.269336e-01
-1.486056e-01
-1.698019e-01
-1.560728e-01
-1.451668e-01
-1.344995e-01
-9.865304e-02
-5.032320e-02
-1.556925e-02
3.715384e-02
7.349391e-02
1.011303e-01
1.284480e-01
1.327358e-01
1.277052e-01
9.715330e-02
5.178629e-02
1.257014e-02
-2.252514e-02
-7.082327e-02
-1.102250e-01
-1.399196e-01
-1.689267e-01
-1.658116e-01
-1.505736e-01
-1.331912e-01
-1.021938e-01
-6.195508e-02
-2.450117e-02
2.802930e-02
8.596504e-02
1.090090e-01
1.259928e-01
1.382028e-01
1.219048e-01
1.005475e-01
5.787653e-02
8.186733e-03
-3.817231e-02
-9.034650e-02
-1.123023e-01
-1.304286e-01
-1.538581e-01
-1.702271e-01
-1.615109e-01
-1.447230e-01
-1.025068e-01
-4.472946e-02
-1.872161e-03
4.383533e-02
8.647693e-02
1.074146e-01
1.243897e-01
1.336689e-01
1.165994e-01
9.847111e-02
6.559708e-02
2.094200e-02
-2.229448e-02
-7.029780e-02
-1.172030e-01
-1.512875e-01
-1.709244e-01
-1.680921e-01
-1.530775e-01
-1.272585e-01
-9.325796e-02
-5.090548e-02
-2.107440e-02
2.963266e-02
8.728401e-02
1.169928e-01
1.358239e-01
1.390410e-01
1.134292e-01
9.199370e-02
6.712432e-02
7.229827e-03
-2.774095e-02
-7.717127e-02
-1.208884e-01
-1.462543e-01
-1.598695e-01
-1.658030e-01
-1.615732e-01
-1.391057e-01
-9.023055e-02
-4.151452e-02
-3.304078e-03
4.589484e-02
8.402485e-02
1.131664e-01
1.275413e-01
1.406791e-01
1.171499e-01
1.031055e-01
7.395124e-02
1.415560e-02
-2.148976e-02
-7.418998e-02
-1.206971e-01
-1.405056e-01
-1.560333e-01
-1.674573e-01
-1.528693e-01
-1.333079e-01
-1.038758e-01
-5.556451e-02
-2.151327e-02
2.712155e-02
7.516459e-02
1.065927e-01
1.308435e-01
1.350338e-01
1.123553e-01
9.166926e-02
7.367656e-02
1.520061e-02
-1.823706e-02
-6.066936e-02
-1.100630e-01
-1.297352e-01
-1.545618e-01
-1.655191e-01
-1.592124e-01
-1.433042e-01
-1.123645e-01
-5.083423e-02
-1.906572e-02
2.423334e-02
6.943642e-02
8.687589e-02
1.139742e-01
1.215355e-01
1.147358e-01
1.051914e-01
5.767075e-02
1.321761e-02
-6.521868e-03
-7.361056e-02
-1.064081e-01
-1.240265e-01
-1.578238e-01
-1.699213e-01
-1.602444e-01
-1.484039e-01
-1.011303e-01
-5.107111e-02
-2.742970e-02
2.734968e-02
7.500012e-02
9.504464e-02
1.220019e-01
1.387535e-01
1.195439e-01
9.851997e-02
7.461327e-02
2.792026e-02
-2.933313e-03
-6.730663e-02
-1.144552e-01
-1.510975e-01
-1.638103e-01
-1.815552e-01
-1.564919e-01
-1.381620e-01
-1.069067e-01
-6.519468e-02
-2.488628e-02
2.609184e-02
8.055439e-02
1.035827e-01
1.194877e-01
1.437419e-01
1.257555e-01
1.134306e-01
8.214428e-02
2.904170e-02
-1.750380e-02
-6.654158e-02
-1.143365e-01
-1.360059e-01
-1.648166e-01
-1.800984e-01
-1.560245e-01
-1.435920e-01
-1.117149e-01
-6.134576e-02
-3.551841e-02
1.193687e-02
6.129365e-02
8.740335e-02
1.082349e-01
1.335282e-01
1.172045e-01
1.018252e-01
7.410675e-02
2.262788e-02
-9.437761e-03
-6.566799e-02
-1.050755e-01
-1.297974e-01
-1.491149e-01
-1.706981e-01
-1.541891e-01
-1.473197e-01
-1.191349e-01
-7.185213e-02
-3.253224e-02
1.590939e-02
6.736147e-02
8.521817e-02
1.210600e-01
1.441453e-01
1.233035e-01
1.153067e-01
8.141819e-02
9.339996e-03
-2.496628e-02
-7.041874e-02
-1.101225e-01
-1.321506e-01
-1.545078e-01
-1.704882e-01
-1.632879e-01
-1.486847e-01
-1.207671e-01
-6.861183e-02
-3.971592e-02
1.013048e-02
5.885009e-02
8.762557e-02
1.172022e-01
1.294025e-01
1.049496e-01
1.014490e-01
6.822848e-02
2.686566e-02
-8.433678e-04
-5.394872e-02
-1.103736e-01
-1.413593e-01
-1.662985e-01
-1.814300e-01
-1.617625e-01
-1.445034e-01
-1.299715e-01
-7.199173e-02
-3.742182e-02
7.368411e-03
6.015603e-02
9.404881e-02
1.180953e-01
1.321579e-01
1.177108e-01
1.014426e-01
6.416472e-02
2.457511e-02
-4.661405e-03
-5.485863e-02
-1.151396e-01
-1.368506e-01
-1.714075e-01
-1.846523e-01
-1.634566e-01
-1.572063e-01
-1.282346e-01
-7.119720e-02
-3.203111e-02
9.785332e-03
6.171016e-02
8.773448e-02
1.081525e-01
1.255240e-01
1.167680e-01
1.017509e-01
7.272758e-02
3.024923e-02
-3.348142e-04
-5.293675e-02
-1.146810e-01
-1.436502e-01
-1.667087e-01
-1.836464e-01
-1.626705e-01
-1.572675e-01
-1.269839e-01
-8.134145e-02
-5.006700e-02
-3.673913e-03
4.493147e-02
6.408240e-02
9.888032e-02
1.296533e-01
1.087314e-01
9.292301e-02
7.389031e-02
1.150446e-02
-1.869414e-02
-5.779294e-02
-1.095770e-01
-1.451958e-01
-1.534716e-01
-1.831712e-01
-1.707527e-01
-1.634710e-01
-1.541768e-01
-9.545401e-02
-5.040350e-02
-8.492697e-03
5.329691e-02
7.878310e-02
1.013970e-01
1.284973e-01
1.136945e-01
1.080733e-01
8.011694e-02
2.087991e-02
-1.786362e-02
-6.634390e-02
-1.168857e-01
-1.390094e-01
-1.635707e-01
-1.823951e-01
-1.694280e-01
-1.718712e-01
-1.389029e-01
-7.688265e-02
-5.844051e-02
-2.341948e-02
2.788400e-02
6.387198e-02
9.845890e-02
1.216508e-01
1.094592e-01
8.659721e-02
6.345458e-02
2.740739e-02
-4.260538e-03
-4.601973e-02
-1.123741e-01
-1.490734e-01
-1.678454e-01
-1.839978e-01
-1.687250e-01
-1.715696e-01
-1.524059e-01
-1.007106e-01
-6.064106e-02
-1.324026e-02
4.601851e-02
6.436796e-02
8.000752e-02
1.009051e-01
8.839372e-02
8.968056e-02
6.211632e-02
1.962363e-02
-1.683864e-02
-5.950838e-02
-1.094556e-01
-1.399626e-01
-1.722024e-01
-2.023694e-01
-1.862631e-01
-1.682261e-01
-1.363982e-01
-8.461736e-02
-5.925354e-02
-1.464637e-02
3.406393e-02
6.766026e-02
9.607771e-02
1.156703e-01
9.682263e-02
9.519774e-02
6.846847e-02
1.931140e-02
-1.705970e-02
-6.333005e-02
-1.106401e-01
-1.504251e-01
-1.759409e-01
-1.875747e-01
-1.838907e-01
-1.708355e-01
-1.432752e-01
-9.814018e-02
-7.646918e-02
-3.013852e-02
2.894991e-02
5.847445e-02
8.733172e-02
1.001996e-01
1.032074e-01
1.022040e-01
7.956982e-02
3.401580e-02
-1.593497e-02
-8.264833e-02
-1.359895e-01
-1.627248e-01
-1.738268e-01
-1.942647e-01
-1.817751e-01
-1.816249e-01
-1.582818e-01
-1.064603e-01
-6.772087e-02
-3.303382e-02
2.268025e-02
4.766112e-02
7.037524e-02
1.031069e-01
1.025719e-01
9.175420e-02
6.118858e-02
1.438817e-02
-2.467128e-02
-6.368963e-02
-1.155520e-01
-1.438952e-01
-1.751694e-01
-2.005440e-01
-1.909406e-01
-1.760627e-01
-1.567899e-01
-1.188297e-01
-8.229373e-02
-4.612396e-02
1.745650e-02
5.759616e-02
8.122784e-02
9.940518e-02
1.039585e-01
8.340918e-02
6.131753e-02
2.010975e-02
-3.178417e-02
-6.538779e-02
-1.143515e-01
-1.492940e-01
-1.713641e-01
-1.913667e-01
-1.972705e-01
-1.864546e-01
-1.614452e-01
-1.261691e-01
-9.829492e-02
-4.757652e-02
8.894879e-03
4.904285e-02
7.600760e-02
9.526285e-02
9.481225e-02
8.089600e-02
5.673139e-02
1.869389e-02
-1.686240e-02
-5.843991e-02
-1.060409e-01
-1.329379e-01
-1.716957e-01
-2.026769e-01
-2.043979e-01
-1.898978e-01
-1.680392e-01
-1.241557e-01
-8.528680e-02
-4.691244e-02
1.836434e-03
3.767831e-02
5.717489e-02
7.845874e-02
8.162420e-02
6.394799e-02
4.889923e-02
1.227618e-02
-4.226515e-02
-8.294661e-02
-1.295638e-01
-1.632992e-01
-1.839768e-01
-2.025542e-01
-1.996112e-01
-2.111378e-01
-1.793468e-01
-1.476706e-01
-9.339886e-02
-4.722643e-02
1.040227e-02
4.239021e-02
5.438443e-02
6.900837e-02
7.919497e-02
6.261303e-02
4.148664e-02
1.695254e-02
-3.198968e-02
-6.912623e-02
-1.168220e-01
-1.599231e-01
-1.905491e-01
-2.127656e-01
-2.197592e-01
-2.001263e-01
-1.796560e-01
-1.517772e-01
-1.033499e-01
-6.770790e-02
-1.823870e-02
2.385128e-02
5.648554e-02
8.157654e-02
9.257603e-02
6.649730e-02
4.484969e-02
6.363754e-03
-4.298382e-02
-7.489675e-02
-1.142549e-01
-1.631685e-01
-1.951524e-01
-2.122444e-01
-2.252312e-01
-2.074534e-01
-1.870390e-01
-1.472064e-01
-1.012227e-01
-6.733543e-02
-2.074084e-02
1.735797e-02
4.991838e-02
6.303566e-02
7.426430e-02
6.389657e-02
4.808472e-02
1.650876e-02
-2.734252e-02
-6.967600e-02
-1.376663e-01
-1.802225e-01
-2.016488e-01
-2.101988e-01
-2.184617e-01
-2.064145e-01
-1.892434e-01
-1.519807e-01
-1.062295e-01
-7.203173e-02
-1.982721e-02
1.380314e-02
4.158046e-02
6.157263e-02
7.335508e-02
5.313050e-02
3.479106e-02
-4.576808e-03
-3.865913e-02
-7.034279e-02
-1.178448e-01
-1.650253e-01
-1.966484e-01
-2.236257e-01
-2.365764e-01
-2.192861e-01
-1.973217e-01
-1.698506e-01
-1.247637e-01
-8.015138e-02
-2.883321e-02
1.003397e-02
4.303108e-02
5.603928e-02
6.833302e-02
6.267166e-02
4.898182e-02
1.033794e-02
-3.844361e-02
-6.982249e-02
-1.190298e-01
-1.688469e-01
-2.132597e-01
-2.214352e-01
-2.330596e-01
-2.240749e-01
-1.953772e-01
-1.617968e-01
-1.240224e-01
-8.736642e-02
-3.231372e-02
1.875363e-02
3.078463e-02
5.109542e-02
6.960832e-02
4.624962e-02
3.308310e-02
8.357222e-03
-4.782131e-02
-8.166338e-02
-1.372077e-01
-1.780180e-01
-2.029017e-01
-2.237680e-01
-2.473225e-01
-2.330314e-01
-2.124759e-01
-1.762088e-01
-1.135216e-01
-8.002998e-02
-4.485893e-02
-1.639722e-03
1.824510e-02
4.683620e-02
6.513350e-02
5.074660e-02
3.778910e-02
-2.315453e-03
-4.746675e-02
-8.695599e-02
-1.407172e-01
-1.866887e-01
-2.045398e-01
-2.380277e-01
-2.458660e-01
-2.202012e-01
-2.126708e-01
-1.933822e-01
-1.460069e-01
-1.191440e-01
-6.658030e-02
-1.249061e-02
2.248202e-02
5.040518e-02
6.461711e-02
5.046282e-02
3.526938e-02
1.312196e-02
-4.507168e-02
-8.616941e-02
-1.363393e-01
-1.770095e-01
-2.056688e-01
-2.282578e-01
-2.375704e-01
-2.308869e-01
-2.214865e-01
-1.910716e-01
-1.347403e-01
-1.083103e-01
-5.632167e-02
-6.540285e-03
1.285315e-02
4.643081e-02
6.350453e-02
4.666830e-02
3.683423e-02
5.683163e-03
-4.940408e-02
-7.992801e-02
-1.359470e-01
-1.838724e-01
-2.107694e-01
-2.305153e-01
-2.458184e-01
-2.287791e-01
-2.270892e-01
-2.015692e-01
-1.460527e-01
-1.114223e-01
-6.058211e-02
-4.230043e-03
1.713368e-02
4.738255e-02
7.041772e-02
5.166008e-02
2.980588e-02
-4.676740e-04
-6.973457e-02
-9.321405e-02
-1.318629e-01
-1.742762e-01
-2.105628e-01
-2.362897e-01
-2.555872e-01
-2.507821e-01
-2.309344e-01
-1.919762e-01
-1.437198e-01
-1.130622e-01
-5.720959e-02
-1.753796e-02
1.053855e-02
2.826926e-02
4.964992e-02
2.320471e-02
1.143760e-02
-8.867361e-03
-5.240085e-02
-7.586218e-02
-1.224693e-01
-1.801962e-01
-2.161908e-01
-2.329923e-01
-2.547185e-01
-2.322251e-01
-2.264683e-01
-2.057801e-01
-1.593183e-01
-1.235479e-01
-7.087216e-02
-1.234756e-02
1.181400e-02
3.936148e-02
6.190832e-02
4.614621e-02
3.184605e-02
4.379184e-03
-4.964836e-02
-8.021978e-02
-1.233951e-01
-1.845379e-01
-2.058374e-01
-2.330298e-01
-2.602763e-01
-2.460300e-01
-2.347608e-01
-2.053812e-01
-1.411880e-01
-1.105996e-01
-5.520783e-02
-6.372293e-03
1.217386e-02
3.141338e-02
6.126456e-02
4.747544e-02
4.517860e-02
1.491679e-02
-2.791749e-02
-6.810205e-02
-1.210474e-01
-1.796136e-01
-2.074107e-01
-2.339692e-01
-2.586723e-01
-2.355570e-01
-2.250851e-01
-2.002385e-01
-1.550745e-01
-1.225422e-01
-7.071686e-02
-2.695099e-02
6.843014e-03
2.482686e-02
4.384237e-02
2.615942e-02
3.245518e-02
1.206240e-02
-4.566572e-02
-8.866614e-02
-1.477178e-01
-1.930800e-01
-2.121630e-01
-2.351222e-01
-2.704496e-01
-2.460203e-01
-2.459887e-01
-2.125993e-01
-1.493485e-01
-1.299183e-01
-9.865162e-02
-3.640896e-02
-3.704295e-03
3.115862e-02
4.747809e-02
2.470882e-02
-3.443954e-03
-9.325092e-03
-5.782377e-02
-8.070608e-02
-1.373534e-01
-1.750986e-01
-2.164014e-01
-2.445135e-01
-2.631305e-01
-2.503810e-01
-2.496461e-01
-2.192666e-01
-1.713491e-01
-1.387819e-01
-9.909850e-02
-4.298368e-02
-1.064881e-02
2.454198e-02
4.632677e-02
3.046399e-02
1.988402e-02
-6.997852e-03
-6.320500e-02
-9.434168e-02
-1.367507e-01
-1.925482e-01
-2.174127e-01
-2.462396e-01
-2.616968e-01
-2.523919e-01
-2.529926e-01
-2.363558e-01
-1.792858e-01
-1.454830e-01
-8.613659e-02
-2.637125e-02
-9.034819e-03
6.431257e-03
1.818943e-02
8.654266e-03
1.489312e-02
1.231331e-04
-5.274232e-02
-7.802625e-02
-1.341646e-01
-1.823647e-01
-2.210580e-01
-2.490866e-01
-2.621016e-01
-2.601137e-01
-2.489424e-01
-2.256085e-01
-1.762732e-01
-1.480302e-01
-1.064134e-01
-4.798299e-02
-1.951900e-02
-5.137683e-03
3.074349e-02
2.319607e-02
5.223625e-03
-1.661753e-02
-6.425085e-02
-9.550831e-02
-1.386292e-01
-1.867503e-01
-2.247224e-01
-2.567928e-01
-2.867896e-01
-2.684440e-01
-2.565916e-01
-2.383258e-01
-1.900195e-01
-1.488487e-01
-1.072909e-01
-6.005136e-02
-1.992872e-02
-7.254475e-03
1.693545e-02
1.646193e-02
1.180899e-02
-1.440885e-02
-5.642531e-02
-1.094873e-01
-1.600501e-01
-2.033751e-01
-2.394310e-01
-2.580491e-01
-2.840050e-01
-2.827392e-01
-2.782739e-01
-2.651086e-01
-2.257720e-01
-1.712400e-01
-1.190460e-01
-6.109218e-02
-9.407194e-03
1.070973e-02
2.271169e-02
1.815373e-02
1.012566e-02
-1.682973e-02
-5.848305e-02
-1.032642e-01
-1.398584e-01
-1.878894e-01
-2.253830e-01
-2.535053e-01
-2.777599e-01
-2.764764e-01
-2.683533e-01
-2.289506e-01
-1.800769e-01
-1.616646e-01
-1.187877e-01
-6.639849e-02
-3.516979e-02
7.694832e-03
3.741485e-02
2.975455e-02
1.564139e-02
-2.407778e-02
-6.055602e-02
-9.243993e-02
-1.408819e-01
-1.845157e-01
-2.248238e-01
-2.529930e-01
-2.767414e-01
-2.788776e-01
-2.662847e-01
-2.433350e-01
-2.044488e-01
-1.558630e-01
-1.125569e-01
-6.935631e-02
-4.307400e-02
-1.178390e-02
7.012353e-03
8.107815e-03
3.281389e-04
-1.667688e-02
-6.046028e-02
-9.764221e-02
-1.483084e-01
-2.030413e-01
-2.386208e-01
-2.602469e-01
-2.740002e-01
-2.751826e-01
-2.627579e-01
-2.576920e-01
-2.146640e-01
-1.711252e-01
-1.429764e-01
-9.423853e-02
-6.013042e-02
-4.130688e-02
3.464337e-03
9.628019e-04
-4.370325e-03
-1.580960e-02
-6.713128e-02
-1.062951e-01
-1.382534e-01
-1.983514e-01
-2.345113e-01
-2.556442e-01
-2.800240e-01
-2.847520e-01
-2.746387e-01
-2.508040e-01
-2.157097e-01
-1.697872e-01
-1.217178e-01
-7.937922e-02
-3.622216e-02
-4.325928e-04
1.153317e-02
1.252473e-02
-8.062339e-03
-2.788908e-02
-6.631663e-02
-1.077333e-01
-1.413340e-01
-1.954248e-01
-2.369541e-01
-2.604117e-01
-2.770936e-01
-2.862644e-01
-2.727872e-01
-2.540553e-01
-2.207472e-01
-1.757538e-01
-1.405077e-01
-9.513234e-02
-5.080764e-02
-2.442549e-02
1.250144e-03
8.331400e-03
-1.165950e-02
-3.282139e-02
-5.978223e-02
-1.013030e-01
-1.424131e-01
-1.908657e-01
-2.312609e-01
-2.768540e-01
-2.854085e-01
-2.994136e-01
-2.782372e-01
-2.540503e-01
-2.264601e-01
-1.812929e-01
-1.415126e-01
-8.940924e-02
-4.587474e-02
-2.439957e-02
-1.046764e-02
-1.444176e-02
-3.058661e-02
-4.128356e-02
-7.860184e-02
-1.249505e-01
-1.608369e-01
-2.074127e-01
-2.401004e-01
-2.503742e-01
-2.635398e-01
-2.985220e-01
-2.776266e-01
-2.630708e-01
-2.302544e-01
-1.790074e-01
-1.459960e-01
-1.031189e-01
-6.565105e-02
-4.129872e-02
-1.052365e-02
8.278284e-03
-1.632727e-02
-4.113314e-02
-6.499644e-02
-1.188621e-01
-1.581842e-01
-2.009360e-01
-2.468116e-01
-2.837250e-01
-2.907585e-01
-2.946781e-01
-2.796365e-01
-2.666530e-01
-2.429908e-01
-1.897230e-01
-1.691798e-01
-1.164613e-01
-5.675163e-02
-3.480261e-02
-1.125660e-02
1.590230e-03
-1.672413e-02
-3.380598e-02
-5.075020e-02
-9.849197e-02
-1.245788e-01
-1.749546e-01
-2.325019e-01
-2.584492e-01
-2.713372e-01
-2.840346e-01
-2.855321e-01
-2.724230e-01
-2.323596e-01
-1.821398e-01
-1.330795e-01
-8.863255e-02
-4.879769e-02
-3.521885e-02
-9.802029e-03
1.660708e-02
6.911760e-03
-1.098557e-02
-4.544599e-02
-1.025438e-01
-1.339267e-01
-1.840531e-01
-2.306051e-01
-2.630779e-01
-2.829271e-01
-3.128613e-01
-2.861184e-01
-2.630729e-01
-2.376681e-01
-1.802252e-01
-1.530685e-01
-1.015264e-01
-4.986804e-02
-3.061896e-02
-5.140013e-03
1.097635e-02
-1.376456e-02
-2.277389e-02
-4.370220e-02
-9.612165e-02
-1.351607e-01
-1.837339e-01
-2.421258e-01
-2.719142e-01
-2.966265e-01
-3.106336e-01
-2.828421e-01
-2.809382e-01
-2.529680e-01
-1.963485e-01
-1.592084e-01
-1.224535e-01
-6.061367e-02
-3.856453e-02
-2.489453e-02
9.943254e-04
-1.086543e-02
-1.927403e-02
-4.620555e-02
-1.057532e-01
-1.346667e-01
-1.956570e-01
-2.452733e-01
-2.689431e-01
-2.957852e-01
-3.118040e-01
-2.839788e-01
-2.741944e-01
-2.494526e-01
-1.878056e-01
-1.576511e-01
-1.213889e-01
-6.693358e-02
-4.359829e-02
-1.306342e-02
1.173094e-02
4.522581e-03
-4.832532e-03
-5.281177e-02
-1.043296e-01
-1.269013e-01
-1.712395e-01
-2.186963e-01
-2.394525e-01
-2.721557e-01
-3.043722e-01
-2.736927e-01
-2.605044e-01
-2.386505e-01
-1.905583e-01
-1.565314e-01
-1.041504e-01
-4.303852e-02
-1.258950e-02
3.202729e-03
1.454870e-02
-6.176042e-03
-1.598478e-02
-3.503030e-02
-8.382951e-02
-1.227544e-01
-1.749047e-01
-2.318895e-01
-2.540960e-01
-2.725177e-01
-2.987258e-01
-2.778920e-01
-2.635985e-01
-2.487103e-01
-1.918634e-01
-1.578414e-01
-1.171594e-01
-5.803450e-02
-1.786445e-02
5.417424e-03
2.940159e-02
1.338948e-02
-4.709320e-03
-4.600221e-02
-9.998636e-02
-1.264635e-01
-1.726184e-01
-2.117206e-01
-2.396887e-01
-2.764963e-01
-2.974080e-01
-2.949222e-01
-2.786729e-01
-2.484172e-01
-2.036477e-01
-1.577419e-01
-1.041599e-01
-4.887177e-02
-2.585386e-02
-1.195031e-02
4.938420e-03
-1.719715e-02
-1.046400e-02
-2.839967e-02
-9.044778e-02
-1.244462e-01
-1.778917e-01
-2.354131e-01
-2.622845e-01
-2.780257e-01
-3.040125e-01
-2.893933e-01
-2.846767e-01
-2.528709e-01
-2.099228e-01
-1.569243e-01
-1.086461e-01
-4.757704e-02
-2.198820e-02
1.644096e-03
1.935382e-02
-2.074083e-03
-1.178802e-02
-3.797268e-02
-8.844849e-02
-1.146009e-01
-1.535485e-01
-1.993512e-01
-2.358039e-01
-2.672146e-01
-2.918900e-01
-2.772135e-01
-2.680805e-01
-2.360100e-01
-1.906583e-01
-1.592772e-01
-1.184358e-01
-6.999836e-02
-3.719543e-02
-1.631002e-02
8.531524e-03
5.926433e-04
-3.828957e-03
-3.111273e-02
-7.265836e-02
-1.107137e-01
-1.543119e-01
-2.118868e-01
-2.412497e-01
-2.787895e-01
-2.996015e-01
-2.868307e-01
-2.774442e-01
-2.483414e-01
-2.029911e-01
-1.582259e-01
-1.120503e-01
-6.874166e-02
-2.972997e-02
-7.376037e-03
8.388313e-03
4.667550e-04
-5.940409e-03
-3.842155e-02
-8.738551e-02
-1.221268e-01
-1.703354e-01
-2.219149e-01
-2.529010e-01
-2.793500e-01
-3.007152e-01
-2.819514e-01
-2.711895e-01
-2.546192e-01
-2.140748e-01
-1.752530e-01
-1.337838e-01
-7.660669e-02
-3.970610e-02
-2.136706e-02
-5.497099e-03
-1.727660e-02
-2.535834e-02
-5.611030e-02
-9.257350e-02
-1.225187e-01
-1.691393e-01
-2.150742e-01
-2.404756e-01
-2.747867e-01
-3.012165e-01
-2.916724e-01
-2.856815e-01
-2.630666e-01
-2.163910e-01
-1.625476e-01
-1.146202e-01
-6.704937e-02
-3.563949e-02
-1.427400e-02
7.715258e-03
1.483987e-02
3.229692e-03
-2.821410e-02
-7.419325e-02
-1.160119e-01
-1.526698e-01
-1.980885e-01
-2.228045e-01
-2.591409e-01
-2.808827e-01
-2.697492e-01
-2.671446e-01
-2.445821e-01
-2.022775e-01
-1.683759e-01
-1.247087e-01
-6.498230e-02
-2.892197e-02
-1.591622e-02
3.732482e-03
-8.507604e-03
-1.794068e-02
-3.778262e-02
-6.707031e-02
-1.157874e-01
-1.519708e-01
-2.100627e-01
-2.493069e-01
-2.736901e-01
-2.961601e-01
-2.945248e-01
-2.764492e-01
-2.479486e-01
-2.067175e-01
-1.753628e-01
-1.404124e-01
-8.385357e-02
-5.151880e-02
-1.752860e-02
5.275093e-04
1.198151e-02
-1.020681e-02
-1.718171e-02
-6.409928e-02
-1.067651e-01
-1.563699e-01
-2.082058e-01
-2.403121e-01
-2.577682e-01
-2.832503e-01
-2.828431e-01
-2.764389e-01
-2.552183e-01
-2.087649e-01
-1.696270e-01
-1.185888e-01
-6.071698e-02
-4.425378e-02
-2.187243e-02
2.900995e-03
-5.184328e-03
-6.194036e-03
-2.398640e-02
-6.729496e-02
-1.133042e-01
-1.626121e-01
-2.213139e-01
-2.558861e-01
-2.811568e-01
-2.858855e-01
-2.994298e-01
-2.842888e-01
-2.622249e-01
-2.285605e-01
-1.890592e-01
-1.430073e-01
-9.087361e-02
-5.673274e-02
-1.911695e-02
9.431233e-03
1.127339e-02
-5.314377e-03
-3.299996e-02
-7.043283e-02
-1.107893e-01
-1.558970e-01
-1.962541e-01
-2.418087e-01
-2.685959e-01
-2.897696e-01
-2.899104e-01
-2.710367e-01
-2.458533e-01
-2.107407e-01
-1.713032e-01
-1.387085e-01
-9.236627e-02
-4.035958e-02
-2.064265e-02
3.640995e-04
1.110211e-02
-1.018483e-03
-1.415707e-02
-4.999788e-02
-9.710987e-02
-1.451289e-01
-1.947682e-01
-2.272114e-01
-2.602010e-01
-2.754696e-01
-2.834521e-01
-2.719808e-01
-2.474924e-01
-2.149126e-01
-1.638849e-01
-1.281019e-01
-8.373111e-02
-4.428906e-02
-1.913829e-02
5.362642e-03
1.540856e-02
1.135417e-02
-2.356942e-02
-7.265585e-02
-1.251756e-01
-1.504556e-01
-1.984614e-01
-2.302179e-01
-2.447147e-01
-2.817114e-01
-2.941582e-01
-2.642160e-01
-2.591032e-01
-2.282672e-01
-1.829903e-01
-1.470966e-01
-9.028009e-02
-5.093546e-02
-2.061144e-02
-1.591818e-02
-5.419543e-03
-5.776013e-03
-3.662281e-02
-6.637147e-02
-1.134829e-01
-1.534210e-01
-2.121622e-01
-2.505993e-01
-2.537346e-01
-2.768732e-01
-2.929906e-01
-2.683756e-01
-2.541301e-01
-2.278814e-01
-1.897770e-01
-1.475342e-01
-9.179784e-02
-5.668930e-02
-1.939872e-02
9.758647e-03
1.467965e-02
-7.274093e-03
-2.512967e-02
-4.932583e-02
-1.059669e-01
-1.370278e-01
-1.827837e-01
-2.266669e-01
-2.521113e-01
-2.790025e-01
-2.922645e-01
-2.823266e-01
-2.607192e-01
-2.213256e-01
-1.657751e-01
-1.222292e-01
-8.147332e-02
-2.813242e-02
-7.490315e-03
1.154975e-02
1.903701e-02
1.510395e-03
-1.461636e-02
-4.574913e-02
-8.777545e-02
-1.162275e-01
-1.676442e-01
-2.119145e-01
-2.404608e-01
-2.620571e-01
-2.717314e-01
-2.609535e-01
-2.455450e-01
-2.080039e-01
-1.637489e-01
-1.183315e-01
-7.358990e-02
-2.610842e-02
-1.178378e-02
1.511402e-02
3.828114e-02
1.197852e-02
-5.090209e-03
-2.953205e-02
-8.377091e-02
-1.010129e-01
-1.557406e-01
-2.123609e-01
-2.405440e-01
-2.708765e-01
-2.766808e-01
-2.523531e-01
-2.389729e-01
-2.023208e-01
-1.672643e-01
-1.223049e-01
-7.132435e-02
-3.230097e-02
-7.992975e-03
5.275588e-03
3.341733e-02
1.510103e-02
7.168905e-04
-2.604095e-02
-7.473628e-02
-1.095411e-01
-1.675954e-01
-2.034441e-01
-2.371902e-01
-2.573204e-01
-2.650275e-01
-2.426567e-01
-2.276175e-01
-2.002428e-01
-1.473513e-01
-1.134454e-01
-7.232741e-02
-2.997754e-02
-1.244530e-03
2.707915e-02
5.328083e-02
2.649914e-02
1.726662e-02
-2.291303e-02
-6.354787e-02
-8.673783e-02
-1.371604e-01
-1.919008e-01
-2.154106e-01
-2.371500e-01
-2.524775e-01
-2.379318e-01
-2.173429e-01
-1.950218e-01
-1.421383e-01
-1.036298e-01
-5.967216e-02
-2.080533e-02
5.692990e-03
2.885251e-02
4.740594e-02
3.170139e-02
2.920239e-02
-1.262568e-02
-5.889138e-02
-8.149470e-02
-1.322579e-01
-1.818459e-01
-2.080378e-01
-2.232122e-01
-2.429007e-01
-2.311309e-01
-2.221429e-01
-2.006324e-01
-1.516609e-01
-1.177413e-01
-6.276508e-02
-1.233822e-02
1.335788e-02
2.786499e-02
5.426438e-02
3.201240e-02
2.087900e-02
-3.873469e-03
-6.402215e-02
-9.135259e-02
-1.402555e-01
-1.798481e-01
-2.098237e-01
-2.307046e-01
-2.467673e-01
-2.279974e-01
-2.175286e-01
-1.869038e-01
-1.404488e-01
-1.126014e-01
-7.037764e-02
-1.661030e-02
-8.844431e-04
1.733459e-02
4.579732e-02
2.044091e-02
2.557328e-02
8.905374e-03
-5.053882e-02
-9.752638e-02
-1.459413e-01
-1.848633e-01
-2.074956e-01
-2.265731e-01
-2.516746e-01
-2.458293e-01
-2.338795e-01
-2.043343e-01
-1.516500e-01
-1.233626e-01
-8.586087e-02
-2.949665e-02
-6.083862e-03
3.274947e-02
4.807818e-02
2.501761e-02
1.306259e-02
-1.837065e-02
-6.609797e-02
-9.009683e-02
-1.383701e-01
-1.827629e-01
-2.223289e-01
-2.377766e-01
-2.457321e-01
-2.339399e-01
-2.261343e-01
-2.013055e-01
-1.594935e-01
-1.322650e-01
-8.340205e-02
-2.857657e-02
-9.771205e-03
1.134329e-02
3.775207e-02
2.653684e-02
1.022667e-02
-2.365030e-02
-8.261578e-02
-1.011320e-01
-1.482243e-01
-2.001686e-01
-2.336075e-01
-2.616320e-01
-2.740780e-01
-2.400367e-01
-2.246839e-01
-2.192203e-01
-1.720901e-01
-1.431601e-01
-9.950082e-02
-2.869234e-02
-1.088638e-02
1.594137e-03
1.956226e-02
9.566515e-03
-1.607388e-03
-2.508689e-02
-8.642213e-02
-1.060669e-01
-1.522947e-01
-1.963389e-01
-2.162088e-01
-2.488311e-01
-2.729664e-01
-2.638696e-01
-2.517060e-01
-2.274241e-01
-1.770936e-01
-1.491730e-01
-9.248684e-02
-5.447187e-02
-4.236462e-02
-4.577593e-03
1.170778e-02
-2.171252e-03
-1.421965e-02
-3.110533e-02
-8.068191e-02
-1.080250e-01
-1.438632e-01
-1.969773e-01
-2.260689e-01
-2.443054e-01
-2.668694e-01
-2.587499e-01
-2.478720e-01
-2.247450e-01
-1.895969e-01
-1.518842e-01
-1.118774e-01
-6.250962e-02
-3.980461e-02
-1.420082e-02
7.031966e-03
-5.952498e-03
-2.456172e-02
-2.435936e-02
-5.502767e-02
-9.389309e-02
-1.348871e-01
-1.874165e-01
-2.201658e-01
-2.494684e-01
-2.588321e-01
-2.563336e-01
-2.533829e-01
-2.283170e-01
-1.823933e-01
-1.513984e-01
-1.018023e-01
-5.578787e-02
-2.324838e-02
1.656161e-03
2.392456e-02
1.413815e-02
8.946520e-03
-8.668325e-03
-5.387970e-02
-9.387020e-02
-1.421707e-01
-1.956738e-01
-2.184538e-01
-2.346738e-01
-2.503709e-01
-2.549324e-01
-2.432389e-01
-2.126842e-01
-1.657041e-01
-1.289556e-01
-8.785191e-02
-5.104463e-02
-2.359436e-02
1.047801e-02
3.818629e-02
3.039416e-02
1.884639e-02
-1.825127e-02
-6.675021e-02
-9.289361e-02
-1.369282e-01
-1.864012e-01
-2.097915e-01
-2.392908e-01
-2.569768e-01
-2.451382e-01
-2.297083e-01
-2.006697e-01
-1.668871e-01
-1.277937e-01
-8.667666e-02
-4.410740e-02
-5.509588e-03
1.118630e-02
2.899756e-02
2.974763e-02
2.245766e-02
1.892036e-03
-4.092491e-02
-8.833345e-02
-1.332214e-01
-1.889165e-01
-2.153504e-01
-2.345576e-01
-2.682874e-01
-2.604102e-01
-2.580417e-01
-2.388053e-01
-1.957567e-01
-1.517325e-01
-1.060895e-01
-5.031013e-02
-2.003937e-02
5.134475e-03
2.256269e-02
1.342084e-02
-2.290873e-03
-1.468458e-02
-5.147142e-02
-1.139561e-01
-1.397523e-01
-1.819924e-01
-2.266222e-01
-2.420014e-01
-2.634084e-01
-2.613147e-01
-2.545326e-01
-2.306675e-01
-1.812434e-01
-1.545093e-01
-1.233531e-01
-7.087993e-02
-3.280715e-02
-9.172183e-03
1.719593e-02
1.712346e-02
9.710082e-03
-1.309563e-02
-4.461894e-02
-8.552173e-02
-1.261870e-01
-1.834214e-01
-2.137212e-01
-2.455425e-01
-2.689998e-01
-2.696089e-01
-2.621791e-01
-2.383812e-01
-1.934160e-01
-1.468109e-01
-1.122007e-01
-5.827039e-02
-2.176759e-02
1.679162e-03
2.235325e-02
1.967270e-02
5.288986e-03
-2.310555e-02
-4.612288e-02
-8.168909e-02
-1.308046e-01
-1.791942e-01
-2.182973e-01
-2.419917e-01
-2.622195e-01
-2.623916e-01
-2.630705e-01
-2.391839e-01
-2.071275e-01
-1.497255e-01
-1.052080e-01
-6.600276e-02
-3.467543e-02
-7.954874e-03
8.279201e-03
1.796564e-02
9.746911e-03
-1.249985e-02
-5.248124e-02
-7.802100e-02
-1.185812e-01
-1.770077e-01
-2.144127e-01
-2.467498e-01
-2.803513e-01
-2.713501e-01
-2.500582e-01
-2.386303e-01
-2.110348e-01
-1.531629e-01
-1.160713e-01
-7.620727e-02
-2.458999e-02
-8.223158e-03
-3.602046e-03
8.696651e-03
9.596945e-03
-4.721700e-03
-3.713034e-02
-7.820075e-02
-1.215127e-01
-1.661589e-01
-2.159678e-01
-2.367058e-01
-2.562966e-01
-2.745312e-01
-2.570384e-01
-2.305501e-01
-1.981219e-01
-1.591693e-01
-1.174092e-01
-7.319431e-02
-2.257519e-02
-2.807001e-03
1.319071e-02
1.789459e-02
4.639027e-03
-2.795572e-02
-5.606078e-02
-9.397944e-02
-1.276679e-01
-1.623208e-01
-2.035533e-01
-2.391573e-01
-2.480631e-01
-2.677160e-01
-2.433099e-01
-2.292511e-01
-1.965998e-01
-1.596284e-01
-1.253093e-01
-7.167818e-02
-2.940647e-02
-2.112869e-03
1.196319e-02
2.898224e-02
2.375351e-02
-4.985670e-03
-4.374775e-02
-9.277875e-02
-1.319301e-01
-1.717962e-01
-2.058294e-01
-2.356519e-01
-2.526600e-01
-2.698047e-01
-2.619555e-01
-2.305965e-01
-1.952111e-01
-1.586487e-01
-1.264135e-01
-7.246763e-02
-3.088357e-02
3.739099e-03
1.184952e-02
2.606573e-02
1.670823e-02
-5.592098e-03
-2.334722e-02
-7.336321e-02
-1.169364e-01
-1.636626e-01
-1.969674e-01
-2.320738e-01
-2.480839e-01
-2.719156e-01
-2.608337e-01
-2.371515e-01
-2.088089e-01
-1.562810e-01
-1.268662e-01
-7.997262e-02
-2.964594e-02
-2.571068e-03
2.211088e-02
2.872832e-02
1.826026e-02
-2.100439e-03
-3.459409e-02
-8.314303e-02
-1.138811e-01
-1.607846e-01
-2.073053e-01
-2.323245e-01
-2.501125e-01
-2.551443e-01
-2.404862e-01
-2.305298e-01
-2.028813e-01
-1.555231e-01
-1.259247e-01
-7.419289e-02
-3.230475e-02
-2.466275e-02
-9.203789e-03
2.002101e-02
7.321938e-03
-2.281501e-03
-3.238291e-02
-9.179500e-02
-1.132233e-01
-1.594673e-01
-1.920477e-01
-2.103008e-01
-2.397942e-01
-2.673022e-01
-2.514681e-01
-2.404239e-01
-2.207980e-01
-1.598778e-01
-1.246841e-01
-8.691078e-02
-3.844787e-02
-6.716700e-04
-1.126447e-02
2.912186e-02
1.827714e-02
-4.010869e-03
-1.321743e-02
-6.056734e-02
-9.699055e-02
-1.440173e-01
-1.940027e-01
-2.292472e-01
-2.497227e-01
-2.551998e-01
-2.451652e-01
-2.212022e-01
-1.935052e-01
-1.540452e-01
-1.293933e-01
-7.934476e-02
-3.041431e-02
-1.335709e-02
1.630732e-02
3.798477e-02
1.018936e-02
-5.675800e-03
-2.175956e-02
-7.087620e-02
-9.616976e-02
-1.435470e-01
-1.871536e-01
-2.152869e-01
-2.396319e-01
-2.436141e-01
-2.274599e-01
-2.187126e-01
-1.862681e-01
-1.485192e-01
-1.254494e-01
-8.413035e-02
-4.878978e-02
-2.125469e-02
5.376315e-03
1.982751e-02
1.925682e-02
-2.600587e-03
-2.060662e-02
-6.244613e-02
-1.023401e-01
-1.540882e-01
-2.039481e-01
-2.253889e-01
-2.425908e-01
-2.459330e-01
-2.271709e-01
-2.181346e-01
-2.024372e-01
-1.578699e-01
-1.265783e-01
-8.551189e-02
-3.931677e-02
-4.718127e-03
1.598916e-02
4.081368e-02
2.836470e-02
3.175816e-03
-2.930170e-02
-7.192818e-02
-1.035774e-01
-1.399624e-01
-1.766422e-01
-2.086601e-01
-2.262908e-01
-2.473255e-01
-2.371929e-01
-2.341679e-01
-2.078163e-01
-1.599723e-01
-1.220775e-01
-6.960953e-02
-2.807068e-02
-7.518578e-03
1.034766e-02
2.396172e-02
9.346287e-03
5.694824e-03
-2.050773e-02
-8.245379e-02
-1.066599e-01
-1.428918e-01
-2.021670e-01
-2.070398e-01
-2.154316e-01
-2.454192e-01
-2.472977e-01
-2.336120e-01
-2.221497e-01
-1.782198e-01
-1.519059e-01
-9.104249e-02
-2.640351e-02
2.132715e-03
1.664129e-02
4.379119e-02
1.825216e-02
1.637192e-03
-2.154690e-02
-6.004008e-02
-9.769630e-02
-1.322049e-01
-1.736507e-01
-1.973771e-01
-2.252923e-01
-2.533723e-01
-2.399123e-01
-2.308719e-01
-2.002722e-01
-1.559151e-01
-1.305403e-01
-7.729486e-02
-2.651772e-02
-1.811058e-02
1.809588e-02
3.687830e-02
8.059571e-03
8.449256e-03
-1.297518e-02
-6.416374e-02
-9.503690e-02
-1.237118e-01
-1.686642e-01
-2.013575e-01
-2.312300e-01
-2.496995e-01
-2.441367e-01
-2.374761e-01
-2.027740e-01
-1.612170e-01
-1.342290e-01
-8.678921e-02
-4.200794e-02
-1.348712e-02
1.594671e-02
3.290187e-02
1.752999e-02
1.218948e-02
-1.223437e-02
-6.530768e-02
-9.936951e-02
-1.355081e-01
-1.822185e-01
-2.063612e-01
-2.195082e-01
-2.613606e-01
-2.627596e-01
-2.252885e-01
-2.031777e-01
-1.502279e-01
-1.129892e-01
-7.720187e-02
-3.405558e-02
-1.814698e-03
2.414734e-02
3.241797e-02
1.700330e-02
1.281754e-02
-1.272478e-03
-3.431666e-02
-7.395919e-02
-1.250912e-01
-1.872153e-01
-2.093657e-01
-2.335804e-01
-2.418209e-01
-2.359698e-01
-2.258611e-01
-2.029524e-01
-1.639193e-01
-1.278749e-01
-8.942069e-02
-4.098274e-02
-1.839224e-02
1.487351e-02
3.587848e-02
3.309310e-02
2.778607e-02
-3.348212e-03
-5.288539e-02
-7.642897e-02
-1.132823e-01
-1.651522e-01
-2.043543e-01
-2.326981e-01
-2.502937e-01
-2.362086e-01
-2.156647e-01
-1.925736e-01
-1.597771e-01
-1.270841e-01
-8.173639e-02
-2.413293e-02
4.475712e-03
2.551636e-03
3.258185e-02
1.724335e-02
1.755451e-02
7.146557e-03
-3.781987e-02
-8.531320e-02
-1.256489e-01
-1.670211e-01
-1.942464e-01
-2.154965e-01
-2.392738e-01
-2.403556e-01
-2.273597e-01
-1.991735e-01
-1.578567e-01
-1.390289e-01
-9.012181e-02
-3.999312e-02
-4.483622e-03
2.865862e-02
5.759529e-02
3.856401e-02
2.264527e-02
7.657902e-03
-3.240589e-02
-6.596281e-02
-1.178257e-01
-1.705937e-01
-1.996000e-01
-2.164648e-01
-2.388225e-01
-2.310162e-01
-2.299498e-01
-2.181919e-01
-1.669506e-01
-1.261399e-01
-7.753320e-02
-3.025710e-02
6.098403e-03
1.575534e-02
5.122688e-02
5.827200e-02
2.973333e-02
9.332276e-03
-3.888394e-02
-8.078557e-02
-1.200527e-01
-1.666859e-01
-1.939272e-01
-2.177973e-01
-2.356965e-01
-2.320529e-01
-2.146292e-01
-2.008768e-01
-1.671424e-01
-1.248240e-01
-9.505089e-02
-4.222135e-02
-9.978416e-03
2.593087e-02
5.197575e-02
3.995714e-02
2.699392e-02
1.117469e-02
-2.825034e-02
-7.504857e-02
-1.108907e-01
-1.486823e-01
-1.918528e-01
-2.136662e-01
-2.241208e-01
-2.287659e-01
-2.336840e-01
-2.098851e-01
-1.567033e-01
-1.291071e-01
-9.229901e-02
-3.768366e-02
-1.576760e-02
2.098983e-02
4.569731e-02
4.033210e-02
2.506922e-02
1.440952e-03
-3.202866e-02
-6.440641e-02
-1.085665e-01
-1.564069e-01
-1.858671e-01
-2.108618e-01
-2.221126e-01
-2.266279e-01
-2.255340e-01
-2.092569e-01
-1.705063e-01
-1.255319e-01
-8.816182e-02
-4.483154e-02
-8.943642e-03
2.123191e-02
4.062289e-02
4.512336e-02
4.320148e-02
2.978560e-03
-1.507078e-02
-5.737856e-02
-9.290268e-02
-1.384449e-01
-1.860627e-01
-2.085481e-01
-2.271686e-01
-2.335418e-01
-2.125658e-01
-1.922551e-01
-1.620700e-01
-1.240241e-01
-8.179370e-02
-3.011031e-02
1.492826e-02
4.009677e-02
4.979229e-02
3.537333e-02
3.300091e-02
1.423507e-02
-3.100163e-02
-4.771806e-02
-9.085414e-02
-1.462893e-01
-1.796267e-01
-1.998200e-01
-2.189866e-01
-2.239078e-01
-2.149936e-01
-1.877783e-01
-1.578948e-01
-1.155629e-01
-7.633179e-02
-3.646827e-02
-8.429274e-03
1.693682e-02
3.670746e-02
5.035140e-02
3.562820e-02
2.510927e-02
-8.612489e-03
-5.848771e-02
-9.139505e-02
-1.426528e-01
-1.892856e-01
-2.167198e-01
-2.238994e-01
-2.356133e-01
-2.150239e-01
-1.974753e-01
-1.608540e-01
-1.088657e-01
-6.442676e-02
-3.404163e-02
1.880155e-02
3.519281e-02
4.684921e-02
6.120889e-02
5.015852e-02
2.196031e-02
-1.343571e-02
-6.180228e-02
-8.837997e-02
-1.248854e-01
-1.722342e-01
-1.972165e-01
-2.273432e-01
-2.324984e-01
-2.145440e-01
-1.897693e-01
-1.633907e-01
-1.223890e-01
-8.815385e-02
-4.310851e-02
-3.012848e-03
2.051904e-02
3.601990e-02
5.643384e-02
4.315018e-02
3.871334e-02
1.685050e-02
-4.078968e-02
-7.738567e-02
-1.268817e-01
-1.676494e-01
-1.902565e-01
-2.118868e-01
-2.249665e-01
-2.114743e-01
-2.010773e-01
-1.688704e-01
-1.143489e-01
-8.067426e-02
-3.773532e-02
4.647732e-04
2.734800e-02
4.781188e-02
6.239118e-02
3.987387e-02
1.525907e-02
-1.262800e-02
-4.968099e-02
-7.868494e-02
-1.239035e-01
-1.580306e-01
-1.825889e-01
-1.920650e-01
-2.188565e-01
-2.052234e-01
-1.869866e-01
-1.646502e-01
-1.083904e-01
-7.239437e-02
-2.818721e-02
6.548807e-03
3.111981e-02
5.767264e-02
7.282341e-02
5.404915e-02
3.022635e-02
7.845980e-03
-3.369840e-02
-7.088158e-02
-1.109797e-01
-1.775711e-01
-1.980299e-01
-2.232471e-01
-2.300612e-01
-2.014369e-01
-1.909029e-01
-1.654671e-01
-1.194746e-01
-8.956527e-02
-4.005403e-02
1.677631e-02
3.947193e-02
4.495727e-02
6.178018e-02
5.410063e-02
3.013890e-02
1.731341e-02
-3.788607e-02
-7.840420e-02
-1.156853e-01
-1.598649e-01
-1.813248e-01
-2.005203e-01
-2.195487e-01
-2.090248e-01
-1.918613e-01
-1.570611e-01
-1.140702e-01
-9.252339e-02
-4.267695e-02
8.822587e-03
3.131041e-02
6.089124e-02
8.769029e-02
5.468876e-02
4.272081e-02
1.464849e-02
-4.739335e-02
-6.959460e-02
-1.202453e-01
-1.688437e-01
-1.874695e-01
-1.887500e-01
-2.121062e-01
-1.846378e-01
-1.850534e-01
-1.598272e-01
-1.138011e-01
-8.650112e-02
-3.243979e-02
1.000404e-02
2.943795e-02
6.206105e-02
7.352033e-02
6.161163e-02
5.421881e-02
2.282345e-02
-3.465959e-02
-6.804737e-02
-1.105310e-01
-1.604140e-01
-1.799691e-01
-1.912581e-01
-2.010266e-01
-1.955474e-01
-1.877345e-01
-1.606251e-01
-1.283291e-01
-1.034905e-01
-5.488369e-02
3.326272e-03
3.117143e-02
5.668566e-02
9.080426e-02
5.494024e-02
4.140363e-02
1.713252e-02
-2.898817e-02
-4.873579e-02
-8.933713e-02
-1.348449e-01
-1.608883e-01
-1.949418e-01
-2.058782e-01
-2.006153e-01
-1.939933e-01
-1.691180e-01
-1.142187e-01
-7.606634e-02
-3.528506e-02
1.949780e-02
2.725667e-02
4.975063e-02
7.963195e-02
5.629170e-02
4.978071e-02
2.371788e-02
-3.026573e-02
-5.717988e-02
-9.952421e-02
-1.343747e-01
-1.563842e-01
-1.814542e-01
-1.994445e-01
-1.940593e-01
-1.924444e-01
-1.595378e-01
-1.115975e-01
-7.924268e-02
-3.044782e-02
1.293028e-02
3.514203e-02
6.079685e-02
7.697667e-02
5.610994e-02
5.615218e-02
3.503671e-02
-1.699117e-02
-4.538836e-02
-8.791716e-02
-1.384457e-01
-1.750590e-01
-1.992366e-01
-2.004551e-01
-1.773405e-01
-1.608607e-01
-1.381875e-01
-1.017023e-01
-7.496285e-02
-3.503184e-02
2.300651e-02
4.405898e-02
5.488665e-02
6.651302e-02
5.723829e-02
5.981424e-02
4.172281e-02
-2.135276e-03
-3.460220e-02
-8.911887e-02
-1.253802e-01
-1.559335e-01
-1.789148e-01
-1.976387e-01
-1.909681e-01
-1.754821e-01
-1.471508e-01
-9.325095e-02
-6.315242e-02
-2.838217e-02
7.155045e-03
3.065412e-02
5.489469e-02
7.936911e-02
7.647613e-02
6.070327e-02
3.891709e-02
-2.543748e-03
-2.962516e-02
-6.815886e-02
-1.173259e-01
-1.457785e-01
-1.700218e-01
-1.889231e-01
-1.753798e-01
-1.706827e-01
-1.458790e-01
-1.062971e-01
-7.616480e-02
-3.420412e-02
1.136241e-02
3.825230e-02
6.562874e-02
1.008074e-01
8.323187e-02
8.163779e-02
4.942467e-02
-8.758442e-03
-4.000589e-02
-6.913865e-02
-1.224226e-01
-1.457874e-01
-1.602517e-01
-1.965137e-01
-1.841299e-01
-1.578296e-01
-1.417431e-01
-9.357682e-02
-7.178644e-02
-2.566594e-02
2.566438e-02
5.109465e-02
8.185203e-02
9.694987e-02
7.121591e-02
7.642940e-02
6.704378e-02
2.205345e-02
-1.805380e-02
-7.735171e-02
-1.197920e-01
-1.500523e-01
-1.680047e-01
-1.747002e-01
-1.726110e-01
-1.761619e-01
-1.446588e-01
-1.042145e-01
-7.046462e-02
-2.769451e-02
2.899140e-02
4.428984e-02
7.613413e-02
9.644626e-02
7.832187e-02
6.464010e-02
4.831481e-02
9.236827e-03
-1.751773e-02
-5.108460e-02
-9.994621e-02
-1.393675e-01
-1.623738e-01
-1.792794e-01
-1.736766e-01
-1.598301e-01
-1.458726e-01
-1.107938e-01
-6.921433e-02
-2.635189e-02
1.456584e-02
3.360180e-02
5.784385e-02
9.700006e-02
9.217016e-02
8.874606e-02
6.433095e-02
1.372568e-02
-1.819105e-02
-4.777444e-02
-8.958286e-02
-1.310418e-01
-1.633976e-01
-1.763247e-01
-1.710436e-01
-1.625285e-01
-1.427198e-01
-1.100903e-01
-6.359558e-02
-1.604390e-02
2.909134e-02
5.667233e-02
7.181092e-02
7.671833e-02
8.324188e-02
8.888658e-02
6.830248e-02
2.651371e-02
-1.177041e-02
-5.832792e-02
-1.152583e-01
-1.431165e-01
-1.627492e-01
-1.753614e-01
-1.750684e-01
-1.646418e-01
-1.390424e-01
-1.030746e-01
-7.106944e-02
-2.775855e-02
1.825405e-02
4.647253e-02
8.322911e-02
1.001975e-01
9.513559e-02
8.755405e-02
5.300423e-02
1.630736e-02
-2.012563e-02
-5.434530e-02
-7.744646e-02
-1.257660e-01
-1.550229e-01
-1.703811e-01
-1.746003e-01
-1.622373e-01
-1.296364e-01
-8.683713e-02
-6.049586e-02
-2.638475e-02
2.470915e-02
5.710572e-02
8.159963e-02
1.014778e-01
1.040525e-01
1.016141e-01
7.974995e-02
5.594680e-02
7.683922e-03
-3.541304e-02
-7.709758e-02
-1.190184e-01
-1.413329e-01
-1.456804e-01
-1.563213e-01
-1.506092e-01
-1.454038e-01
-1.027519e-01
-5.477171e-02
-1.480411e-02
4.078078e-02
8.039245e-02
9.942865e-02
1.092694e-01
1.129238e-01
1.089815e-01
7.988327e-02
4.858369e-02
5.409725e-03
-3.555191e-02
-6.987819e-02
-1.093762e-01
-1.374385e-01
-1.618218e-01
-1.578628e-01
-1.481168e-01
-1.166260e-01
-7.668742e-02
-4.695312e-02
-1.816699e-02
3.212259e-02
8.120896e-02
1.035279e-01
1.165776e-01
1.197980e-01
1.006389e-01
7.472206e-02
5.375340e-02
5.625664e-03
-2.623809e-02
-7.045154e-02
-1.033519e-01
-1.343163e-01
-1.511583e-01
-1.672228e-01
-1.519496e-01
-1.233070e-01
-9.942986e-02
-4.636298e-02
-4.979419e-03
3.494293e-02
5.373256e-02
8.566708e-02
1.072978e-01
1.222107e-01
1.093943e-01
1.067247e-01
5.483742e-02
6.591085e-03
-2.061440e-02
-7.167604e-02
-1.042638e-01
-1.294339e-01
-1.509630e-01
-1.559260e-01
-1.443531e-01
-1.389966e-01
-1.106225e-01
-5.801640e-02
-2.091251e-02
2.858387e-02
6.846537e-02
9.168725e-02
1.034280e-01
1.216289e-01
1.055744e-01
8.104335e-02
4.741045e-02
-4.217657e-03
-3.935193e-02
-7.253547e-02
-1.199185e-01
-1.630014e-01
-1.825194e-01
-1.722832e-01
-1.520067e-01
-1.347418e-01
-9.005120e-02
-5.348442e-02
-3.600879e-02
2.736357e-02
7.576225e-02
9.233871e-02
1.021769e-01
1.099256e-01
1.055726e-01
8.017219e-02
4.684711e-02
5.857207e-03
-3.669203e-02
-8.406904e-02
-1.203473e-01
-1.389922e-01
-1.581228e-01
-1.646592e-01
-1.513304e-01
-1.416745e-01
-1.190621e-01
-6.870514e-02
-3.519170e-02
9.199212e-03
5.622008e-02
7.938742e-02
9.123998e-02
1.138482e-01
1.027355e-01
8.213933e-02
5.875416e-02
9.182382e-03
-2.266214e-02
-6.913424e-02
-1.169070e-01
-1.450600e-01
-1.647900e-01
-1.823255e-01
-1.595514e-01
-1.455952e-01
-1.179924e-01
-7.590350e-02
-5.054485e-02
-8.414027e-03
4.383143e-02
7.300086e-02
8.845976e-02
1.152828e-01
9.612662e-02
7.605650e-02
6.016343e-02
1.200157e-02
-2.774617e-02
-8.629585e-02
-1.221274e-01
-1.447758e-01
-1.658069e-01
-1.772653e-01
-1.642575e-01
-1.489453e-01
-1.234264e-01
-7.654121e-02
-4.277466e-02
-2.277460e-03
5.126562e-02
8.442255e-02
1.101588e-01
1.211521e-01
1.065121e-01
7.756957e-02
5.787761e-02
3.071435e-03
-2.455208e-02
-6.548830e-02
-1.180529e-01
-1.545592e-01
-1.777228e-01
-2.017852e-01
-1.903950e-01
-1.707331e-01
-1.307075e-01
-7.614112e-02
-3.607328e-02
2.683900e-02
6.542941e-02
8.019321e-02
8.972002e-02
1.153967e-01
1.020871e-01
9.257391e-02
6.260769e-02
3.261638e-03
-3.620391e-02
-7.490771e-02
-1.136807e-01
-1.495840e-01
-1.704630e-01
-1.924780e-01
-1.745934e-01
-1.566791e-01
-1.241493e-01
-8.272015e-02
-4.663533e-02
-2.603116e-05
5.098570e-02
8.207799e-02
1.037627e-01
1.061116e-01
9.847061e-02
9.417647e-02
8.084878e-02
4.350981e-02
1.183846e-02
-4.670217e-02
-1.013259e-01
-1.356093e-01
-1.601617e-01
-1.627142e-01
-1.547032e-01
-1.363508e-01
-1.115368e-01
-5.423611e-02
-2.887142e-02
1.473082e-02
5.945712e-02
7.491694e-02
9.678563e-02
1.340702e-01
1.331176e-01
1.228883e-01
1.031178e-01
3.927813e-02
2.674703e-03
-4.788012e-02
-1.002694e-01
-1.290780e-01
-1.466672e-01
-1.558454e-01
-1.317506e-01
-1.170755e-01
-9.931310e-02
-5.086023e-02
-1.741137e-02
2.965265e-02
7.571343e-02
1.082840e-01
1.241883e-01
1.433300e-01
1.366166e-01
1.234020e-01
9.019786e-02
4.021316e-02
1.050857e-02
-2.194358e-02
-7.957301e-02
-1.080686e-01
-1.409234e-01
-1.652293e-01
-1.562102e-01
-1.378653e-01
-9.996773e-02
-5.240826e-02
-2.896404e-02
1.897887e-02
7.651289e-02
1.123978e-01
1.327154e-01
1.546457e-01
1.292826e-01
1.153246e-01
8.880764e-02
5.082082e-02
2.110336e-02
-2.866689e-02
-7.832292e-02
-1.018390e-01
-1.325478e-01
-1.506105e-01
-1.359307e-01
-1.342623e-01
-1.201989e-01
-5.288408e-02
-2.827204e-02
1.984284e-02
7.547112e-02
9.787565e-02
1.123669e-01
1.388839e-01
1.328873e-01
1.286903e-01
1.062357e-01
4.790425e-02
1.912968e-02
-2.519657e-02
-7.913010e-02
-1.034656e-01
-1.272001e-01
-1.509015e-01
-1.480083e-01
-1.411953e-01
-1.070894e-01
-5.415693e-02
-2.212681e-02
2.379282e-02
7.411228e-02
9.013233e-02
1.126600e-01
1.382081e-01
1.278082e-01
1.132723e-01
8.897148e-02
5.271259e-02
7.431590e-03
-3.431961e-02
-1.009270e-01
-1.230324e-01
-1.425533e-01
-1.509329e-01
-1.316348e-01
-1.198550e-01
-9.601097e-02
-5.831776e-02
-2.462027e-02
2.234099e-02
6.416738e-02
9.960122e-02
1.303808e-01
1.528162e-01
1.300694e-01
1.184063e-01
9.009816e-02
4.151495e-02
2.310650e-02
-9.042620e-03
-6.498601e-02
-1.111640e-01
-1.379281e-01
-1.564362e-01
-1.423280e-01
-1.268690e-01
-1.087676e-01
-6.178543e-02
-3.165926e-02
2.408891e-02
7.876402e-02
1.016302e-01
1.227979e-01
1.393039e-01
1.441742e-01
1.372329e-01
1.078702e-01
5.537523e-02
1.823352e-02
-3.095279e-02
-6.674565e-02
-8.838147e-02
-1.142076e-01
-1.479474e-01
-1.418021e-01
-1.376092e-01
-1.143104e-01
-5.688819e-02
-2.417906e-02
1.965916e-02
7.757018e-02
1.059971e-01
1.246822e-01
1.422350e-01
1.358074e-01
1.250371e-01
9.627793e-02
7.880152e-02
3.800509e-02
-1.941781e-02
-6.565613e-02
-1.133756e-01
-1.450954e-01
-1.597762e-01
-1.459671e-01
-1.312688e-01
-1.056306e-01
-6.529230e-02
-3.388309e-02
1.091424e-02
6.457963e-02
1.004442e-01
1.229406e-01
1.448827e-01
1.379735e-01
1.215489e-01
1.081816e-01
5.522404e-02
1.734819e-02
-1.935183e-02
-7.118081e-02
-9.958505e-02
-1.312032e-01
-1.475887e-01
-1.504992e-01
-1.385303e-01
-1.040320e-01
-5.568063e-02
-1.755547e-02
2.197101e-02
4.945515e-02
8.085482e-02
1.154923e-01
1.238987e-01
1.352290e-01
1.310383e-01
1.077834e-01
6.782818e-02
3.610762e-02
-1.491816e-02
-5.918563e-02
-8.800149e-02
-1.162032e-01
-1.308781e-01
-1.270600e-01
-1.285546e-01
-1.130509e-01
-6.676015e-02
-2.478281e-02
1.871855e-02
7.123324e-02
1.058983e-01
1.343544e-01
1.464680e-01
1.446557e-01
1.399391e-01
1.151730e-01
7.301774e-02
3.522864e-02
-1.392782e-03
-5.506457e-02
-9.052997e-02
-1.178843e-01
-1.314422e-01
-1.265946e-01
-1.158037e-01
-1.026229e-01
-6.732880e-02
-1.635217e-02
2.513322e-02
7.693043e-02
1.065744e-01
1.256725e-01
1.400050e-01
1.370620e-01
1.368675e-01
1.242205e-01
7.613035e-02
3.816738e-02
6.316530e-03
-4.546127e-02
-8.995774e-02
-9.667445e-02
-1.209461e-01
-1.270437e-01
-1.173077e-01
-9.438252e-02
-5.519484e-02
-1.829558e-02
1.675731e-02
6.650688e-02
9.538060e-02
1.267752e-01
1.524648e-01
1.547241e-01
1.297983e-01
1.163771e-01
7.863188e-02
5.479104e-02
1.486992e-02
-3.044706e-02
-7.873169e-02
-1.085792e-01
-1.294967e-01
-1.323256e-01
-1.189175e-01
-1.061357e-01
-5.994149e-02
-2.147636e-02
2.047346e-02
7.524963e-02
1.074510e-01
1.195529e-01
1.441650e-01
1.513112e-01
1.356375e-01
1.252746e-01
8.058503e-02
3.379130e-02
8.541575e-03
-2.839114e-02
-7.297517e-02
-9.850537e-02
-1.142657e-01
-1.272467e-01
-1.178821e-01
-8.592877e-02
-5.845339e-02
-2.884802e-02
1.391068e-02
7.061332e-02
1.099393e-01
1.337567e-01
1.434201e-01
1.462569e-01
1.357618e-01
1.155728e-01
8.888011e-02
4.739216e-02
1.349026e-02
-2.308137e-02
-6.311622e-02
-8.919414e-02
-1.145255e-01
-1.346783e-01
-1.227678e-01
-8.780819e-02
-5.255198e-02
-1.809920e-02
1.589791e-02
6.915177e-02
1.025347e-01
1.358730e-01
1.519283e-01
1.591079e-01
1.502236e-01
1.267709e-01
9.830514e-02
5.405063e-02
8.516535e-03
-3.906222e-02
-6.233040e-02
-9.311230e-02
-1.136817e-01
-1.253241e-01
-1.102363e-01
-9.935426e-02
-6.055322e-02
-2.815462e-02
1.615908e-02
5.761686e-02
1.076091e-01
1.341150e-01
1.416520e-01
1.454131e-01
1.332902e-01
1.244805e-01
9.638453e-02
5.592180e-02
2.007994e-02
-3.119245e-02
-7.092726e-02
-9.067050e-02
-1.104973e-01
-1.296428e-01
-1.223831e-01
-9.738423e-02
-6.411703e-02
-9.947876e-03
1.763618e-02
5.507199e-02
8.786073e-02
1.161885e-01
1.401618e-01
1.585689e-01
1.457207e-01
1.290946e-01
9.977990e-02
6.311046e-02
1.858302e-02
-2.104485e-02
-6.172855e-02
-9.487605e-02
-9.896304e-02
-1.154054e-01
-1.145212e-01
-8.879529e-02
-6.903380e-02
-1.688466e-02
2.072433e-02
6.791981e-02
1.118661e-01
1.394005e-01
1.592800e-01
1.666088e-01
1.380169e-01
1.132181e-01
1.040954e-01
5.919422e-02
3.179407e-02
-1.215266e-02
-6.533791e-02
-9.828466e-02
-1.010438e-01
-1.142941e-01
-1.052659e-01
-8.740748e-02
-7.123162e-02
-1.729520e-02
1.116058e-02
5.770629e-02
9.842400e-02
1.259473e-01
1.509839e-01
1.809820e-01
1.665676e-01
1.473176e-01
1.152349e-01
5.285872e-02
1.570141e-02
-2.096204e-02
-5.723540e-02
-7.568154e-02
-9.721661e-02
-1.274347e-01
-1.276874e-01
-1.150712e-01
-7.108488e-02
-1.433516e-02
1.412093e-02
7.012843e-02
1.171496e-01
1.357683e-01
1.540476e-01
1.706201e-01
1.442865e-01
1.293072e-01
1.078749e-01
6.376164e-02
2.870512e-02
-2.641861e-02
-7.672435e-02
-1.025563e-01
-1.129005e-01
-1.332583e-01
-1.123747e-01
-9.290708e-02
-7.426926e-02
-2.195870e-02
1.689276e-02
5.585444e-02
1.069634e-01
1.334714e-01
1.452849e-01
1.623664e-01
1.417141e-01
1.262056e-01
1.041409e-01
6.097577e-02
2.555249e-02
-1.524230e-02
-6.487022e-02
-1.000873e-01
-1.210777e-01
-1.390451e-01
-1.219622e-01
-1.049807e-01
-7.276527e-02
-2.863934e-02
-4.199618e-03
4.522651e-02
9.340417e-02
1.255443e-01
1.562493e-01
1.753289e-01
1.491008e-01
1.465780e-01
1.289757e-01
7.074842e-02
2.988966e-02
-2.260815e-02
-7.374889e-02
-9.872063e-02
-1.038215e-01
-1.193623e-01
-1.076882e-01
-1.045191e-01
-7.329362e-02
-1.858832e-02
1.121705e-02
5.251800e-02
1.003119e-01
1.193916e-01
1.539930e-01
1.834295e-01
1.592932e-01
1.502405e-01
1.101700e-01
5.949394e-02
2.913213e-02
-1.224162e-02
-5.565292e-02
-8.208375e-02
-1.066775e-01
-1.241280e-01
-1.019023e-01
-1.047523e-01
-7.258686e-02
-2.972612e-02
-5.106805e-03
4.107067e-02
9.941991e-02
1.344458e-01
1.482662e-01
1.649045e-01
1.525611e-01
1.387328e-01
1.164848e-01
6.955820e-02
3.400687e-02
-1.684975e-02
-5.413155e-02
-6.832910e-02
-1.114341e-01
-1.326014e-01
-1.217191e-01
-1.230820e-01
-8.526635e-02
-2.614751e-02
-7.029425e-03
3.380996e-02
8.868787e-02
1.150676e-01
1.433693e-01
1.619695e-01
1.416027e-01
1.307115e-01
1.084572e-01
7.228822e-02
4.171936e-02
-1.215052e-03
-5.437995e-02
-8.367230e-02
-1.088075e-01
-1.256085e-01
-1.131913e-01
-1.175039e-01
-9.785970e-02
-4.603460e-02
-1.415550e-02
3.973830e-02
8.461498e-02
1.143837e-01
1.316119e-01
1.545238e-01
1.534798e-01
1.414639e-01
1.190661e-01
7.113881e-02
4.700185e-02
-2.795583e-03
-5.139169e-02
-8.712021e-02
-1.133191e-01
-1.271319e-01
-1.081126e-01
-1.015309e-01
-7.454160e-02
-3.265371e-02
-5.723028e-03
4.841679e-02
9.953137e-02
1.232089e-01
1.381641e-01
1.624256e-01
1.457605e-01
1.403033e-01
1.192597e-01
6.269258e-02
3.268000e-02
-1.429819e-02
-4.955392e-02
-6.824834e-02
-1.007696e-01
-1.317150e-01
-1.264813e-01
-1.212728e-01
-8.710404e-02
-4.096344e-02
-2.165200e-03
3.200978e-02
8.183840e-02
1.083909e-01
1.499325e-01
1.615301e-01
1.470817e-01
1.387009e-01
1.175470e-01
7.520084e-02
4.625537e-02
-1.435234e-03
-5.599497e-02
-9.094380e-02
-1.122996e-01
-1.280248e-01
-1.139321e-01
-1.080917e-01
-8.819371e-02
-4.606638e-02
-1.353703e-02
3.029724e-02
8.313771e-02
1.110306e-01
1.338134e-01
1.615216e-01
1.472788e-01
1.441101e-01
1.213996e-01
7.277802e-02
3.937263e-02
4.506122e-04
-5.690264e-02
-9.227186e-02
-1.298048e-01
-1.423505e-01
-1.189535e-01
-1.191795e-01
-8.157031e-02
-5.290394e-02
-2.040485e-02
2.817956e-02
6.810486e-02
1.051567e-01
1.190243e-01
1.507556e-01
1.515163e-01
1.452625e-01
1.263492e-01
7.432426e-02
3.092869e-02
-2.123152e-02
-6.260940e-02
-9.276316e-02
-1.197362e-01
-1.417493e-01
-1.276414e-01
-1.161214e-01
-1.023744e-01
-5.194075e-02
-1.211592e-02
3.062651e-02
7.951781e-02
1.144915e-01
1.309143e-01
1.452795e-01
1.368492e-01
1.377326e-01
1.168089e-01
6.003931e-02
2.625550e-02
-2.086585e-02
-5.968196e-02
-9.049927e-02
-1.148337e-01
-1.387402e-01
-1.338983e-01
-1.235949e-01
-9.480062e-02
-6.073510e-02
-2.414828e-02
1.864588e-02
7.078803e-02
1.062020e-01
1.414059e-01
1.570366e-01
1.469675e-01
1.350439e-01
1.163763e-01
7.217938e-02
2.947177e-02
-2.010324e-03
-4.557607e-02
-8.776651e-02
-1.048963e-01
-1.283824e-01
-1.436037e-01
-1.296867e-01
-1.106473e-01
-6.693497e-02
-2.330673e-02
1.820345e-02
6.265497e-02
9.676148e-02
1.269155e-01
1.502472e-01
1.452656e-01
1.255834e-01
1.098484e-01
7.046653e-02
3.142603e-02
-6.099686e-04
-6.264003e-02
-9.457931e-02
-1.062164e-01
-1.261325e-01
-1.254013e-01
-1.106290e-01
-1.045554e-01
-7.439127e-02
-2.760278e-02
7.917592e-03
5.826135e-02
1.011040e-01
1.134295e-01
1.473819e-01
1.521639e-01
1.377902e-01
1.253733e-01
8.035287e-02
4.009239e-02
7.132836e-03
-4.526671e-02
-8.675210e-02
-1.126202e-01
-1.323326e-01
-1.318565e-01
-1.130373e-01
-1.030245e-01
-7.118072e-02
-3.263943e-02
-4.404397e-03
5.298276e-02
9.355062e-02
1.245030e-01
1.368763e-01
1.469192e-01
1.440887e-01
1.144575e-01
8.134543e-02
4.064261e-02
5.573505e-03
-4.236106e-02
-8.248603e-02
-1.197226e-01
-1.283128e-01
-1.391800e-01
-1.212499e-01
-1.017373e-01
-7.062955e-02
-3.312603e-02
4.965041e-03
5.716754e-02
9.911022e-02
1.094882e-01
1.155520e-01
1.453123e-01
1.351559e-01
1.228425e-01
8.749641e-02
3.768493e-02
-7.434198e-03
-4.653813e-02
-7.750084e-02
-1.110228e-01
-1.387229e-01
-1.531228e-01
-1.390685e-01
-1.152408e-01
-7.286678e-02
-3.424927e-02
2.259993e-03
5.712010e-02
8.993603e-02
1.178779e-01
1.488526e-01
1.447594e-01
1.368571e-01
1.211757e-01
8.165981e-02
3.636136e-02
1.365086e-02
-3.433721e-02
-8.328559e-02
-1.039718e-01
-1.275869e-01
-1.416340e-01
-1.227199e-01
-1.062447e-01
-7.135989e-02
-3.335574e-02
7.638477e-04
4.657917e-02
9.062951e-02
1.054138e-01
1.240967e-01
1.405101e-01
1.165983e-01
1.109965e-01
8.858550e-02
3.751142e-02
3.875440e-03
-4.265057e-02
-8.689604e-02
-1.130750e-01
-1.360771e-01
-1.444357e-01
-1.385411e-01
-1.183813e-01
-7.670294e-02
-3.000691e-02
2.526145e-03
5.190696e-02
9.024982e-02
1.054343e-01
1.219697e-01
1.350783e-01
1.247201e-01
1.120119e-01
8.607489e-02
3.794315e-02
5.368993e-04
-4.514173e-02
-8.845239e-02
-1.048177e-01
-1.317142e-01
-1.527053e-01
-1.355122e-01
-1.103585e-01
-8.238397e-02
-2.536771e-02
-5.465252e-04
3.089666e-02
6.920908e-02
1.047444e-01
1.326258e-01
1.415923e-01
1.313763e-01
1.158177e-01
8.117831e-02
4.618419e-02
1.888681e-02
-2.886916e-02
-9.063141e-02
-1.144038e-01
-1.407109e-01
-1.515872e-01
-1.252188e-01
-1.015906e-01
-8.150307e-02
-3.707168e-02
-1.527450e-02
3.226043e-02
7.569224e-02
1.055544e-01
1.262308e-01
1.432877e-01
1.345023e-01
1.254470e-01
9.883180e-02
4.572209e-02
3.994953e-03
-6.104588e-02
-1.007497e-01
-1.084250e-01
-1.249064e-01
-1.355534e-01
-1.271500e-01
-1.203167e-01
-1.022196e-01
-4.789599e-02
-8.330864e-03
3.409834e-02
8.342156e-02
1.037764e-01
1.337729e-01
1.413921e-01
1.263014e-01
1.097227e-01
7.783860e-02
3.477504e-02
1.319090e-02
-4.260445e-02
-8.615082e-02
-1.188052e-01
-1.431567e-01
-1.530691e-01
-1.418676e-01
-1.229575e-01
-9.866031e-02
-4.478445e-02
-2.174908e-02
3.785028e-02
8.863176e-02
1.089127e-01
1.376687e-01
1.464843e-01
1.248319e-01
1.113887e-01
8.371858e-02
3.901513e-02
3.211706e-03
-3.883163e-02
-8.200585e-02
-1.071915e-01
-1.216211e-01
-1.431333e-01
-1.281872e-01
-1.234793e-01
-9.081618e-02
-4.427399e-02
-1.378999e-02
3.646540e-02
8.498458e-02
1.027711e-01
1.223143e-01
1.356491e-01
1.203893e-01
1.089478e-01
9.025271e-02
4.522435e-02
1.906767e-02
-3.665533e-02
-7.384430e-02
-9.853822e-02
-1.281441e-01
-1.490207e-01
-1.362604e-01
-1.285113e-01
-1.098147e-01
-5.430008e-02
-2.470720e-02
2.604487e-02
7.937287e-02
9.429885e-02
1.208463e-01
1.418225e-01
1.243939e-01
1.228654e-01
9.032807e-02
3.675970e-02
2.391997e-03
-2.672461e-02
-8.260687e-02
-1.053512e-01
-1.326651e-01
-1.634421e-01
-1.413279e-01
-1.191120e-01
-9.707276e-02
-4.365914e-02
-2.228657e-02
2.121588e-02
7.121525e-02
9.526798e-02
1.188840e-01
1.260966e-01
1.186727e-01
9.877099e-02
7.186731e-02
3.396502e-02
6.804336e-03
-3.352292e-02
-7.936241e-02
-8.835366e-02
-1.228912e-01
-1.574830e-01
-1.366944e-01
-1.239523e-01
-1.096475e-01
-5.358895e-02
-2.026028e-02
2.330399e-02
7.063778e-02
9.486285e-02
1.191449e-01
1.279411e-01
1.200249e-01
1.257037e-01
1.176960e-01
7.027682e-02
2.341848e-02
-3.392635e-02
-7.991892e-02
-1.136280e-01
-1.259759e-01
-1.434650e-01
-1.310803e-01
-1.289939e-01
-1.063744e-01
-5.204970e-02
-2.877561e-02
1.738475e-02
5.797678e-02
9.779450e-02
1.151601e-01
1.375999e-01
1.243270e-01
1.148925e-01
8.263393e-02
4.172048e-02
1.107901e-02
-2.533787e-02
-8.031190e-02
-1.114694e-01
-1.322929e-01
-1.541614e-01
-1.462873e-01
-1.295720e-01
-1.085263e-01
-5.661456e-02
-3.226003e-02
1.275713e-02
5.139502e-02
8.087265e-02
1.189257e-01
1.425832e-01
1.272622e-01
1.133883e-01
9.232020e-02
4.895937e-02
2.151586e-02
-1.840766e-02
-7.568117e-02
-1.076920e-01
-1.295598e-01
-1.402348e-01
-1.384542e-01
-1.355037e-01
-1.170229e-01
-6.488443e-02
-2.224905e-02
2.498813e-02
6.806926e-02
9.521112e-02
1.135372e-01
1.303026e-01
1.369652e-01
1.211935e-01
8.929777e-02
5.427004e-02
1.029408e-02
-2.785856e-02
-6.663758e-02
-8.445885e-02
-1.316620e-01
-1.540481e-01
-1.476457e-01
-1.373253e-01
-1.158880e-01
-5.289400e-02
-3.038547e-02
1.937133e-03
5.689916e-02
9.558618e-02
1.298491e-01
1.390475e-01
1.296341e-01
1.176000e-01
9.687682e-02
6.335275e-02
3.553437e-02
-1.770055e-02
-7.245523e-02
-1.135895e-01
-1.277429e-01
-1.582304e-01
-1.467016e-01
-1.413818e-01
-1.180589e-01
-7.972844e-02
-3.326038e-02
1.196179e-02
6.288850e-02
8.938778e-02
1.159718e-01
1.255326e-01
1.262664e-01
1.170969e-01
1.072626e-01
6.668987e-02
1.798948e-02
-2.473135e-02
-7.980034e-02
-1.169228e-01
-1.319655e-01
-1.530890e-01
-1.511497e-01
-1.482152e-01
-1.162513e-01
-7.687723e-02
-3.321092e-02
-1.864581e-03
2.407177e-02
6.625072e-02
1.025165e-01
1.496069e-01
1.468549e-01
1.337776e-01
9.637548e-02
4.786319e-02
2.700113e-02
-8.065077e-03
-6.396133e-02
-1.093555e-01
-1.432448e-01
-1.529773e-01
-1.425956e-01
-1.368425e-01
-1.226441e-01
-8.539911e-02
-4.846327e-02
3.002235e-03
5.243780e-02
8.508719e-02
1.113787e-01
1.185670e-01
1.266138e-01
1.253041e-01
1.068694e-01
6.290285e-02
2.546477e-02
-2.496220e-02
-8.513819e-02
-1.114033e-01
-1.249553e-01
-1.476710e-01
-1.417874e-01
-1.352278e-01
-1.234165e-01
-8.760282e-02
-4.773910e-02
-6.249580e-03
3.639104e-02
7.889640e-02
1.106585e-01
1.291156e-01
1.372734e-01
1.201021e-01
9.607935e-02
5.271482e-02
1.618629e-02
-1.757673e-02
-7.007545e-02
-1.091548e-01
-1.376004e-01
-1.595999e-01
-1.612102e-01
