2.892355e-03
6.065708e-02
5.628022e-03
1.094799e-02
4.368474e-03
2.435445e-03
5.121882e-03
2.220101e-03
1.104983e-02
2.689526e-02
1.880225e-02
7.501818e-03
1.204177e-03
4.153986e-06
1.946816e-04
3.491793e-03
1.947147e-02
3.672252e-02
4.799560e-02
5.363465e-02
3.203923e-02
2.175828e-02
1.929556e-02
1.038032e-02
5.541638e-03
6.018467e-04
2.629346e-03
1.293605e-02
1.990864e-02
2.407376e-02
1.402947e-02
6.645699e-03
2.207555e-03
1.306753e-07
7.391440e-04
5.358653e-03
1.548384e-02
2.436884e-02
3.785836e-02
5.174419e-02
4.521554e-02
3.870958e-02
2.483152e-02
6.557407e-03
1.258695e-03
8.564228e-05
3.567806e-03
5.459292e-03
9.083048e-03
1.572409e-02
1.346712e-02
1.270627e-02
8.806488e-03
1.073308e-03
2.568862e-04
5.885075e-03
2.125805e-02
3.128383e-02
3.599772e-02
4.506958e-02
3.568644e-02
3.216002e-02
2.028991e-02
8.116883e-03
3.095982e-03
2.199483e-04
1.569055e-03
5.402767e-03
1.147668e-02
1.846152e-02
1.301170e-02
1.147469e-02
4.811855e-03
2.670324e-04
2.972934e-04
6.252476e-03
1.887598e-02
3.170520e-02
3.840947e-02
4.686577e-02
3.650762e-02
3.116832e-02
2.177558e-02
7.977745e-03
3.978446e-03
1.521234e-04
3.026067e-03
6.343128e-03
1.294231e-02
2.380370e-02
1.568602e-02
1.441666e-02
6.765564e-03
5.406361e-04
2.752519e-04
6.389659e-03
1.977677e-02
2.557995e-02
3.172814e-02
3.788287e-02
2.938117e-02
2.927927e-02
2.229605e-02
8.269090e-03
2.861165e-03
3.126811e-06
3.417928e-03
6.813475e-03
1.245798e-02
2.197036e-02
1.679591e-02
1.493238e-02
8.507389e-03
7.304912e-04
2.021477e-05
4.232937e-03
1.619965e-02
2.593183e-02
3.268505e-02
4.168664e-02
3.423807e-02
2.790027e-02
1.964221e-02
7.817574e-03
3.315422e-03
1.114508e-04
3.199906e-03
9.349233e-03
1.735131e-02
2.277181e-02
1.922964e-02
1.561252e-02
6.752087e-03
6.296542e-04
2.266630e-05
4.844391e-03
1.634310e-02
2.179475e-02
3.051556e-02
4.382956e-02
3.676416e-02
2.956240e-02
2.138166e-02
8.913310e-03
2.640510e-03
2.170868e-05
2.807099e-03
8.281874e-03
1.275758e-02
2.048911e-02
1.781868e-02
1.462745e-02
9.600534e-03
1.503512e-03
2.144781e-05
3.389028e-03
1.326846e-02
2.159026e-02
3.253992e-02
4.022018e-02
3.546201e-02
3.163938e-02
2.075214e-02
8.132973e-03
3.278181e-03
3.449611e-06
4.216391e-03
8.226533e-03
1.294355e-02
2.522751e-02
1.775785e-02
1.610751e-02
9.599222e-03
1.530190e-03
2.851844e-08
3.279502e-03
1.182575e-02
1.885185e-02
3.049339e-02
3.997123e-02
3.130898e-02
2.936956e-02
2.104982e-02
7.649422e-03
3.296097e-03
8.213407e-05
2.258737e-03
8.895242e-03
1.283679e-02
2.163843e-02
1.742181e-02
1.431448e-02
9.384554e-03
2.381539e-03
2.335391e-05
2.426366e-03
1.213101e-02
2.202897e-02
2.942917e-02
3.682662e-02
3.359142e-02
2.996270e-02
2.606713e-02
1.196992e-02
3.177061e-03
9.955593e-05
1.987397e-03
6.413747e-03
9.524438e-03
1.640128e-02
1.988209e-02
1.756765e-02
1.067268e-02
2.689237e-03
3.509578e-05
1.637672e-03
9.746394e-03
2.154041e-02
3.188410e-02
3.994934e-02
3.449625e-02
3.044426e-02
1.934724e-02
1.127969e-02
3.924097e-03
5.632960e-06
3.182019e-03
7.971273e-03
1.519909e-02
2.222328e-02
1.903503e-02
1.622753e-02
9.788469e-03
2.242764e-03
1.063121e-05
1.380120e-03
9.324725e-03
2.072361e-02
3.008617e-02
3.847396e-02
3.804955e-02
2.946468e-02
2.087535e-02
9.969484e-03
2.128673e-03
1.952406e-05
2.246328e-03
8.326995e-03
1.494134e-02
2.113513e-02
2.221271e-02
1.734190e-02
1.239503e-02
3.399361e-03
1.131893e-04
1.778351e-03
9.417268e-03
1.795333e-02
2.501612e-02
3.060282e-02
3.362048e-02
3.262848e-02
2.401270e-02
1.243068e-02
3.441800e-03
7.365780e-05
2.491967e-03
8.447037e-03
1.544378e-02
2.061767e-02
2.261981e-02
1.727536e-02
1.217250e-02
5.480553e-03
5.682310e-04
5.529686e-04
6.000731e-03
1.752239e-02
2.571095e-02
3.296531e-02
3.485972e-02
2.738983e-02
2.204863e-02
1.130397e-02
2.399825e-03
9.951395e-06
3.805863e-03
1.160829e-02
1.828185e-02
2.501437e-02
2.652200e-02
1.798685e-02
1.269472e-02
5.023199e-03
2.528520e-04
5.489183e-04
6.309207e-03
1.591459e-02
2.554404e-02
3.273485e-02
3.290753e-02
2.850229e-02
2.152470e-02
8.389886e-03
1.493331e-03
2.078340e-08
2.581042e-03
9.335828e-03
1.511440e-02
2.235101e-02
2.725523e-02
2.161038e-02
1.223999e-02
6.389010e-03
1.207510e-03
1.856515e-04
4.653090e-03
1.477450e-02
2.380211e-02
2.949193e-02
3.387227e-02
2.714771e-02
2.170354e-02
1.211713e-02
2.131797e-03
5.181196e-06
3.142605e-03
1.020207e-02
1.505898e-02
2.057817e-02
2.432435e-02
2.090782e-02
1.559233e-02
7.659168e-03
9.759078e-04
2.015754e-04
4.687997e-03
1.522681e-02
2.228201e-02
2.717619e-02
3.375283e-02
2.659291e-02
2.098363e-02
1.205505e-02
3.205181e-03
2.837571e-04
1.788991e-03
9.219876e-03
1.621876e-02
2.261820e-02
2.758222e-02
1.989990e-02
1.417028e-02
7.839696e-03
5.806336e-04
3.892140e-05
3.564569e-03
1.400348e-02
1.959259e-02
2.774367e-02
3.368213e-02
2.740499e-02
2.205021e-02
1.379130e-02
2.783103e-03
1.209585e-04
1.932482e-03
8.219093e-03
1.494509e-02
2.058114e-02
2.792706e-02
2.186194e-02
1.625948e-02
6.938244e-03
4.796443e-04
1.748731e-04
3.995833e-03
1.363873e-02
2.248371e-02
2.813960e-02
3.392768e-02
2.902672e-02
2.119535e-02
1.273358e-02
3.278256e-03
1.287040e-04
2.230381e-03
9.836243e-03
1.543340e-02
2.132041e-02
2.814230e-02
1.886268e-02
1.465807e-02
8.431380e-03
8.901610e-04
4.523555e-05
3.244484e-03
1.412547e-02
2.292685e-02
2.913331e-02
3.453782e-02
2.551217e-02
1.924499e-02
1.185277e-02
3.372661e-03
1.895718e-04
2.073413e-03
9.271950e-03
1.377583e-02
1.751835e-02
2.203976e-02
2.200193e-02
2.222988e-02
1.116301e-02
1.688045e-03
3.136434e-06
4.962235e-03
1.146337e-02
1.837210e-02
2.752938e-02
3.478929e-02
2.697169e-02
1.889906e-02
1.013483e-02
1.989055e-03
1.503376e-04
1.036937e-03
1.027276e-02
1.743068e-02
2.363756e-02
3.047575e-02
2.339427e-02
1.335808e-02
7.994348e-03
1.191921e-03
1.343432e-06
3.379405e-03
1.382514e-02
1.968680e-02
2.509532e-02
3.237936e-02
2.356152e-02
1.944142e-02
1.321799e-02
2.800091e-03
2.797152e-04
1.075399e-03
7.557343e-03
1.382500e-02
2.084973e-02
3.040267e-02
2.344969e-02
1.822470e-02
9.832826e-03
1.849531e-03
1.109161e-04
2.161816e-03
1.077739e-02
1.758950e-02
2.493780e-02
3.437642e-02
2.415390e-02
2.167600e-02
1.290609e-02
3.560178e-03
3.993479e-04
1.162902e-03
8.869302e-03
1.559852e-02
2.354313e-02
3.096972e-02
2.369665e-02
2.028919e-02
1.170102e-02
2.488076e-03
1.747864e-04
1.317792e-03
8.548708e-03
1.448910e-02
2.128036e-02
2.902102e-02
2.390173e-02
1.962535e-02
1.103358e-02
1.417780e-03
4.025886e-06
3.945749e-03
1.455716e-02
1.915934e-02
2.748782e-02
3.386580e-02
2.672167e-02
2.274366e-02
1.461087e-02
3.725293e-03
6.779599e-04
1.358165e-03
8.414084e-03
1.610226e-02
2.339705e-02
3.054649e-02
2.214467e-02
1.854843e-02
1.075282e-02
1.446273e-03
1.028586e-05
3.211252e-03
1.333542e-02
2.007899e-02
2.668292e-02
3.216662e-02
2.477925e-02
2.053104e-02
1.240897e-02
3.032303e-03
2.856316e-04
1.094518e-03
8.999719e-03
1.429996e-02
2.442287e-02
3.546407e-02
2.650818e-02
2.111858e-02
1.164152e-02
2.879423e-03
5.922676e-05
1.233925e-03
9.461898e-03
1.898250e-02
2.665884e-02
3.200014e-02
2.917776e-02
2.519420e-02
1.613753e-02
5.356368e-03
8.833513e-04
8.063050e-04
7.660754e-03
1.394301e-02
2.217242e-02
3.012827e-02
2.669083e-02
2.031310e-02
1.294447e-02
2.948640e-03
4.117283e-04
1.417049e-03
9.736461e-03
1.768970e-02
2.807447e-02
3.608955e-02
2.982591e-02
2.518846e-02
1.820386e-02
5.135771e-03
6.102225e-04
6.996500e-04
7.665039e-03
1.588351e-02
1.988257e-02
2.962521e-02
2.313554e-02
1.906616e-02
1.343372e-02
2.918714e-03
2.712578e-04
1.041198e-03
9.230036e-03
1.813020e-02
2.498063e-02
3.455153e-02
2.869331e-02
2.701420e-02
1.637850e-02
4.733627e-03
9.619919e-04
8.135285e-04
7.219841e-03
1.325843e-02
1.882021e-02
2.654849e-02
2.136260e-02
1.872321e-02
1.211071e-02
2.971552e-03
4.320006e-04
9.845607e-04
8.320047e-03
1.450059e-02
2.479899e-02
2.957345e-02
2.902136e-02
2.774573e-02
1.711999e-02
6.472596e-03
1.419788e-03
3.041619e-04
6.722678e-03
1.325194e-02
1.983985e-02
2.829196e-02
2.590510e-02
2.139184e-02
1.339110e-02
3.652977e-03
6.184023e-04
8.345143e-04
7.192270e-03
1.608713e-02
2.362249e-02
3.271211e-02
3.033168e-02
2.328310e-02
1.276975e-02
4.450162e-03
5.141877e-04
9.949802e-04
6.269908e-03
1.465920e-02
2.143131e-02
2.877760e-02
2.381357e-02
2.218024e-02
1.409110e-02
4.138500e-03
1.071653e-03
6.279817e-04
7.085939e-03
1.480555e-02
2.313361e-02
3.009687e-02
2.607444e-02
2.415074e-02
1.528518e-02
4.997811e-03
1.095820e-03
6.286349e-04
5.974018e-03
1.096279e-02
1.951052e-02
2.536611e-02
2.269554e-02
2.074328e-02
1.272298e-02
4.413352e-03
6.471230e-04
7.076390e-04
6.764750e-03
1.652034e-02
2.353279e-02
2.824174e-02
2.347122e-02
2.046126e-02
1.594794e-02
6.412881e-03
1.571672e-03
1.395971e-04
4.456083e-03
1.161926e-02
1.865989e-02
2.621576e-02
2.571914e-02
2.414517e-02
1.495141e-02
4.418046e-03
4.815116e-04
8.023363e-04
7.773970e-03
1.497327e-02
2.298792e-02
2.945744e-02
2.997776e-02
2.613071e-02
1.810153e-02
7.841065e-03
1.924011e-03
2.595740e-05
3.782915e-03
1.023301e-02
1.900741e-02
2.565812e-02
2.514752e-02
1.914127e-02
1.219879e-02
5.887224e-03
1.089916e-03
1.802775e-04
6.507235e-03
1.637065e-02
2.451868e-02
2.981157e-02
2.811216e-02
2.791929e-02
2.059608e-02
9.498032e-03
1.331709e-03
1.315193e-04
4.265578e-03
1.159127e-02
1.868546e-02
2.723688e-02
2.920440e-02
2.436680e-02
1.382723e-02
3.945078e-03
9.288680e-04
2.592531e-04
5.939025e-03
1.292318e-02
2.199591e-02
2.883861e-02
3.158554e-02
2.853638e-02
2.036146e-02
9.508931e-03
1.475875e-03
1.155700e-04
3.151007e-03
7.395274e-03
1.199884e-02
2.007196e-02
2.517674e-02
2.242862e-02
1.718244e-02
6.911229e-03
8.729088e-04
1.011862e-04
4.736575e-03
1.673047e-02
2.511722e-02
3.290256e-02
3.193925e-02
2.518584e-02
1.855575e-02
1.101944e-02
2.792727e-03
5.388213e-05
3.620473e-03
1.293681e-02
1.997415e-02
2.352828e-02
2.615738e-02
2.140730e-02
1.278805e-02
5.790720e-03
1.020853e-03
2.954513e-04
4.834677e-03
1.386336e-02
2.324230e-02
3.012438e-02
3.193952e-02
2.674928e-02
1.757599e-02
1.019116e-02
1.520193e-03
1.589840e-06
3.788524e-03
1.117655e-02
1.923831e-02
2.527607e-02
3.145221e-02
2.555590e-02
1.735066e-02
9.374784e-03
9.433541e-04
1.193527e-04
4.375594e-03
1.243087e-02
1.928437e-02
2.288339e-02
2.636629e-02
2.300580e-02
1.643504e-02
8.710188e-03
1.484851e-03
4.915670e-05
5.442332e-03
1.414367e-02
2.191434e-02
3.021708e-02
3.427608e-02
2.604903e-02
2.054103e-02
1.035470e-02
2.060114e-03
1.283264e-05
1.988115e-03
9.874155e-03
1.604540e-02
2.580165e-02
2.707964e-02
2.204931e-02
1.771264e-02
7.511101e-03
7.622155e-04
3.799471e-05
4.830732e-03
1.607383e-02
2.150668e-02
2.757073e-02
3.371676e-02
2.985274e-02
2.148027e-02
1.277856e-02
2.384474e-03
1.414545e-04
1.954605e-03
8.583583e-03
1.177295e-02
2.029269e-02
2.567282e-02
2.122740e-02
1.415508e-02
6.834827e-03
1.346104e-03
6.165360e-06
3.635064e-03
1.216896e-02
2.352945e-02
2.985839e-02
3.344443e-02
2.544026e-02
1.947485e-02
1.039018e-02
2.626076e-03
2.648866e-04
1.772694e-03
1.014771e-02
1.650636e-02
2.188922e-02
2.915362e-02
2.310950e-02
1.604556e-02
9.686871e-03
1.613051e-03
2.998642e-07
3.071361e-03
1.014075e-02
1.660201e-02
2.268112e-02
2.618369e-02
2.312022e-02
1.907042e-02
9.125066e-03
1.574597e-03
1.537429e-06
2.818625e-03
1.008875e-02
1.656050e-02
2.178445e-02
2.947522e-02
2.550081e-02
1.880867e-02
1.158011e-02
3.112744e-03
2.600136e-04
1.492860e-03
9.913019e-03
1.450975e-02
2.264796e-02
2.801966e-02
2.251748e-02
1.778585e-02
9.260507e-03
1.503301e-03
3.371152e-06
2.750673e-03
1.041740e-02
1.670083e-02
2.485913e-02
3.145970e-02
2.499987e-02
1.930121e-02
1.066024e-02
2.578567e-03
2.553416e-04
1.550375e-03
9.797150e-03
1.547876e-02
2.250506e-02
2.745166e-02
2.147716e-02
1.776069e-02
1.219289e-02
2.692200e-03
7.862052e-05
3.001873e-03
1.280169e-02
1.975916e-02
2.833666e-02
3.388379e-02
2.916553e-02
2.413359e-02
1.440489e-02
3.081514e-03
2.019473e-04
1.586271e-03
7.933733e-03
1.426243e-02
2.349757e-02
2.719802e-02
2.209193e-02
1.775800e-02
8.658072e-03
2.126985e-03
2.344606e-05
2.650238e-03
1.138757e-02
2.113356e-02
2.847178e-02
3.675377e-02
3.040086e-02
2.597141e-02
1.544431e-02
2.975155e-03
1.541548e-04
1.578423e-03
7.463454e-03
1.369359e-02
2.013028e-02
2.625614e-02
2.298420e-02
1.810123e-02
9.933090e-03
2.451623e-03
1.042928e-04
1.520881e-03
1.239420e-02
1.945402e-02
2.694264e-02
3.340581e-02
2.473037e-02
2.060042e-02
1.480071e-02
4.162833e-03
6.201595e-04
7.080517e-04
8.168218e-03
1.639500e-02
2.111504e-02
2.710483e-02
2.243040e-02
1.912755e-02
9.264699e-03
2.234068e-03
1.127770e-05
2.779716e-03
1.168309e-02
1.815704e-02
2.765005e-02
3.495155e-02
2.863266e-02
2.567556e-02
1.634596e-02
4.029492e-03
1.289391e-03
4.406773e-04
6.829577e-03
1.278243e-02
2.250816e-02
2.991319e-02
2.456395e-02
1.948679e-02
1.253084e-02
2.204251e-03
9.243968e-07
2.515675e-03
1.271388e-02
2.074045e-02
2.812752e-02
3.525355e-02
3.072212e-02
2.557667e-02
1.522848e-02
4.956912e-03
8.026625e-04
5.057860e-04
8.039827e-03
1.398239e-02
2.221907e-02
2.975920e-02
2.256652e-02
1.707176e-02
9.460352e-03
1.219240e-03
8.891260e-08
3.160959e-03
1.269973e-02
1.986411e-02
2.880205e-02
3.872719e-02
2.917709e-02
2.518059e-02
1.526898e-02
3.998567e-03
1.040075e-03
8.547535e-04
6.778200e-03
1.292378e-02
2.074203e-02
2.736601e-02
2.235832e-02
1.747484e-02
1.140022e-02
2.445306e-03
9.001639e-05
1.848793e-03
1.073164e-02
1.894388e-02
2.734363e-02
3.574933e-02
2.878568e-02
2.720642e-02
1.793684e-02
6.057814e-03
1.290270e-03
3.324056e-04
7.267628e-03
1.251000e-02
1.973773e-02
2.507567e-02
2.081084e-02
1.815316e-02
1.211965e-02
2.056862e-03
1.885123e-04
2.045722e-03
1.087728e-02
1.826540e-02
2.550680e-02
3.463594e-02
2.958444e-02
2.774628e-02
1.973731e-02
6.904274e-03
1.963643e-03
1.286372e-04
6.697976e-03
1.166409e-02
1.783199e-02
2.419192e-02
1.645497e-02
1.500151e-02
1.178412e-02
2.592041e-03
2.563737e-04
1.343017e-03
9.055844e-03
1.898397e-02
2.783065e-02
3.756919e-02
3.249218e-02
2.871085e-02
1.788295e-02
6.743572e-03
1.212302e-03
3.295953e-05
3.847060e-03
1.118927e-02
1.867283e-02
2.504962e-02
2.055878e-02
1.799978e-02
1.121505e-02
1.985866e-03
2.483416e-04
1.128701e-03
1.050498e-02
1.855578e-02
2.577201e-02
3.605234e-02
3.402001e-02
2.765025e-02
2.204866e-02
7.739050e-03
1.483618e-03
2.056479e-04
4.764108e-03
8.933898e-03
1.562997e-02
2.314007e-02
2.235407e-02
2.104535e-02
1.253241e-02
3.023561e-03
1.790961e-04
1.132254e-03
8.591039e-03
1.606462e-02
2.883107e-02
3.513461e-02
3.248573e-02
2.614832e-02
1.707062e-02
6.757880e-03
2.521824e-03
2.475413e-07
4.292991e-03
1.058028e-02
1.850019e-02
2.645437e-02
2.170629e-02
2.069585e-02
1.380179e-02
3.272322e-03
4.655798e-05
3.032051e-03
1.513034e-02
2.137453e-02
2.788998e-02
3.740826e-02
3.176398e-02
2.930531e-02
2.219817e-02
7.674233e-03
2.448902e-03
1.437417e-06
4.005218e-03
9.437925e-03
1.548551e-02
2.427427e-02
2.146295e-02
2.049777e-02
1.248797e-02
3.927285e-03
4.128512e-04
1.553420e-03
9.195621e-03
1.849942e-02
3.108691e-02
3.844706e-02
3.657687e-02
2.851119e-02
1.905954e-02
9.457901e-03
2.737905e-03
1.326228e-04
2.536638e-03
7.633155e-03
1.301981e-02
2.068034e-02
1.813295e-02
1.768980e-02
1.065778e-02
3.081253e-03
1.603147e-04
9.126048e-04
6.720042e-03
1.499598e-02
2.397980e-02
3.403990e-02
3.540292e-02
3.025232e-02
2.097007e-02
9.505395e-03
2.670786e-03
1.298687e-07
3.809887e-03
1.028556e-02
1.725171e-02
2.357693e-02
2.577625e-02
2.051901e-02
1.267446e-02
4.516511e-03
8.984698e-05
1.005909e-03
7.705472e-03
1.734301e-02
2.538968e-02
3.382548e-02
3.531091e-02
3.102794e-02
2.174502e-02
1.065287e-02
3.043884e-03
3.846307e-05
2.686605e-03
8.651560e-03
1.552659e-02
2.144829e-02
2.266718e-02
1.603825e-02
1.286652e-02
4.844144e-03
4.758656e-04
5.303253e-04
8.135308e-03
2.069711e-02
2.533942e-02
3.040254e-02
3.510044e-02
2.946132e-02
2.151760e-02
1.273633e-02
2.509756e-03
4.468762e-07
3.510312e-03
1.045543e-02
1.671589e-02
2.281778e-02
2.568264e-02
1.929843e-02
1.307755e-02
4.831161e-03
6.038738e-04
4.635157e-04
6.075781e-03
1.502328e-02
2.335250e-02
3.049607e-02
3.324453e-02
2.806139e-02
1.814989e-02
9.828069e-03
2.007085e-03
2.739337e-05
3.051961e-03
9.794852e-03
1.519173e-02
2.294531e-02
2.809097e-02
2.341298e-02
1.703525e-02
7.014249e-03
8.615833e-04
2.449854e-05
4.215373e-03
1.324164e-02
2.311919e-02
3.189484e-02
3.152050e-02
2.483977e-02
1.846736e-02
1.053892e-02
2.748563e-03
1.819035e-04
2.790911e-03
1.096998e-02
1.779121e-02
2.210192e-02
2.848701e-02
1.968899e-02
1.376752e-02
6.717184e-03
5.186336e-04
2.411842e-04
4.357339e-03
1.217132e-02
2.153007e-02
2.904364e-02
3.628904e-02
2.779198e-02
2.075536e-02
9.982226e-03
2.348265e-03
1.422630e-04
2.331451e-03
8.835476e-03
1.528402e-02
2.236136e-02
2.640691e-02
1.981574e-02
1.527508e-02
8.614410e-03
8.465744e-04
1.485264e-04
5.445290e-03
1.567275e-02
2.026648e-02
2.786309e-02
3.285715e-02
2.754692e-02
2.484979e-02
1.509068e-02
3.794350e-03
4.337154e-04
1.920282e-03
9.617710e-03
1.521067e-02
1.958935e-02
2.621622e-02
1.911673e-02
1.435133e-02
7.682550e-03
7.314842e-04
1.043415e-04
4.721050e-03
1.559062e-02
2.412401e-02
3.079102e-02
3.766230e-02
2.962484e-02
2.399273e-02
1.557381e-02
4.545624e-03
8.237972e-04
8.770756e-04
6.563865e-03
1.360899e-02
1.887349e-02
2.422811e-02
2.130966e-02
1.412259e-02
6.191256e-03
8.196267e-04
6.399301e-05
5.053915e-03
1.560655e-02
2.187307e-02
3.203647e-02
3.693786e-02
2.928903e-02
2.381295e-02
1.729043e-02
4.322874e-03
4.512651e-04
6.944456e-04
6.518225e-03
1.103227e-02
1.789952e-02
2.535410e-02
2.159936e-02
1.512808e-02
7.267877e-03
3.458999e-04
2.407482e-04
3.980818e-03
1.463750e-02
2.256076e-02
3.234165e-02
3.960685e-02
3.225537e-02
2.402897e-02
1.354320e-02
4.551834e-03
1.315179e-03
5.078526e-04
5.669376e-03
1.345099e-02
1.897007e-02
2.386891e-02
1.545160e-02
1.142505e-02
6.595303e-03
7.476687e-04
7.956965e-05
4.556123e-03
1.588135e-02
2.364541e-02
3.398697e-02
3.840844e-02
3.603471e-02
2.924083e-02
1.735258e-02
5.145634e-03
8.890524e-04
8.520742e-04
6.893622e-03
9.754802e-03
1.744622e-02
2.149126e-02
1.535448e-02
1.396088e-02
7.111209e-03
2.662668e-04
2.042248e-04
4.615218e-03
1.470092e-02
2.245405e-02
3.227721e-02
4.236168e-02
3.489012e-02
2.975307e-02
1.997760e-02
6.161222e-03
1.634595e-03
1.363825e-04
5.552601e-03
8.499704e-03
1.515336e-02
2.026691e-02
1.676511e-02
1.548524e-02
8.128184e-03
8.195771e-04
3.874977e-05
3.673380e-03
1.391011e-02
2.265866e-02
3.490152e-02
4.280986e-02
3.255867e-02
2.785899e-02
1.746960e-02
4.536861e-03
1.580741e-03
1.952529e-04
5.629959e-03
1.007490e-02
1.614740e-02
2.111641e-02
1.684015e-02
1.593887e-02
8.020936e-03
1.217286e-03
1.635810e-08
4.715391e-03
1.628874e-02
2.343534e-02
3.394035e-02
3.903091e-02
3.020320e-02
3.071013e-02
1.816850e-02
6.315068e-03
1.586211e-03
1.448422e-04
4.880817e-03
9.387248e-03
1.604137e-02
2.149685e-02
1.663594e-02
1.344559e-02
7.265948e-03
6.986608e-04
1.307071e-05
3.889297e-03
1.583534e-02
2.554408e-02
3.406957e-02
4.217723e-02
3.360215e-02
2.907447e-02
2.061664e-02
7.283289e-03
2.081276e-03
6.737623e-05
3.789663e-03
8.828002e-03
1.493224e-02
2.062697e-02
1.371733e-02
1.127202e-02
5.737950e-03
7.025079e-04
6.917079e-05
2.873539e-03
1.283644e-02
2.013594e-02
3.069155e-02
4.024830e-02
3.629780e-02
3.320880e-02
2.328933e-02
7.484567e-03
2.203505e-03
2.293966e-05
3.346552e-03
7.460875e-03
1.339816e-02
1.989323e-02
1.618285e-02
1.337324e-02
7.368729e-03
5.860453e-04
9.375912e-05
3.384629e-03
1.236506e-02
2.256459e-02
2.968361e-02
4.074573e-02
3.698356e-02
3.078928e-02
2.115983e-02
8.336140e-03
3.251171e-03
3.381588e-07
3.421013e-03
7.448729e-03
1.420377e-02
1.978092e-02
1.521381e-02
1.413191e-02
8.452162e-03
9.955963e-04
6.080370e-05
4.904976e-03
1.601024e-02
2.553988e-02
2.997903e-02
3.828130e-02
3.736577e-02
3.183933e-02
2.466553e-02
1.002863e-02
4.317177e-03
1.946605e-05
2.813956e-03
7.031322e-03
1.361601e-02
2.037391e-02
1.589888e-02
1.357674e-02
8.377881e-03
8.971590e-04
1.060123e-04
4.832678e-03
1.583395e-02
2.695547e-02
3.431327e-02
4.275625e-02
3.851476e-02
3.464448e-02
2.420314e-02
1.003005e-02
4.867867e-03
3.033822e-05
2.453169e-03
7.392311e-03
1.287821e-02
1.926682e-02
1.665801e-02
1.390996e-02
1.011380e-02
1.233707e-03
2.112694e-04
3.876587e-03
1.429791e-02
2.256326e-02
2.826924e-02
4.097268e-02
3.995026e-02
3.337285e-02
2.338400e-02
1.080969e-02
3.673159e-03
4.762846e-04
1.355976e-03
8.076594e-03
1.712300e-02
2.376886e-02
1.719284e-02
1.364986e-02
6.365800e-03
1.140045e-03
1.641296e-05
3.129447e-03
1.216015e-02
2.454206e-02
3.873776e-02
4.281206e-02
4.057860e-02
3.584156e-02
2.501532e-02
1.007648e-02
5.029973e-03
2.425652e-04
1.350149e-03
4.841833e-03
1.157217e-02
1.666418e-02
1.649227e-02
1.380300e-02
9.587796e-03
2.020535e-03
2.330291e-05
2.311593e-03
1.277134e-02
2.115184e-02
2.949760e-02
3.872066e-02
3.725955e-02
3.520565e-02
2.678003e-02
1.209320e-02
4.490860e-03
1.571445e-04
2.720775e-03
7.900652e-03
1.313294e-02
1.950730e-02
1.641661e-02
1.368836e-02
7.885501e-03
2.147398e-03
5.829933e-09
2.405323e-03
1.377000e-02
2.539266e-02
3.417440e-02
4.511639e-02
4.168215e-02
3.699699e-02
2.970560e-02
1.370854e-02
5.466704e-03
3.716876e-04
1.500404e-03
5.751343e-03
1.110240e-02
1.943175e-02
1.966766e-02
1.384822e-02
7.863731e-03
2.572165e-03
5.865364e-05
3.048430e-03
1.098624e-02
2.168833e-02
3.303126e-02
3.997989e-02
3.802125e-02
3.547554e-02
2.402704e-02
1.150021e-02
5.088379e-03
5.658040e-04
7.217302e-04
4.218584e-03
1.026726e-02
1.512131e-02
1.968663e-02
1.550986e-02
1.289782e-02
4.612849e-03
1.874532e-04
1.750504e-03
9.615619e-03
1.990875e-02
3.049383e-02
3.823190e-02
4.022769e-02
3.413961e-02
2.467629e-02
1.264147e-02
4.258825e-03
2.914015e-04
1.820202e-03
7.869515e-03
1.421421e-02
1.871066e-02
1.959197e-02
1.468831e-02
8.960328e-03
3.781168e-03
9.777601e-05
2.173831e-03
1.080845e-02
2.057544e-02
3.195992e-02
3.916733e-02
3.772649e-02
3.249021e-02
2.622216e-02
1.337296e-02
4.117340e-03
1.107136e-03
1.133930e-03
6.476238e-03
1.296893e-02
1.697337e-02
2.212426e-02
1.694495e-02
1.016640e-02
3.870202e-03
2.027092e-04
1.835568e-03
8.557370e-03
2.021784e-02
3.376245e-02
4.384485e-02
4.629473e-02
3.725744e-02
2.729384e-02
1.602947e-02
5.776386e-03
1.292359e-03
9.101299e-04
7.738293e-03
1.268569e-02
1.853881e-02
2.213509e-02
1.690923e-02
1.219272e-02
5.056937e-03
1.513069e-04
1.095098e-03
7.787110e-03
1.699764e-02
2.495390e-02
3.343609e-02
4.126895e-02
3.373023e-02
2.782346e-02
1.369118e-02
3.464357e-03
2.432323e-04
1.703480e-03
7.480069e-03
1.384519e-02
1.645380e-02
2.281030e-02
1.982628e-02
1.172116e-02
5.107283e-03
6.984632e-04
6.067356e-04
5.162956e-03
1.233303e-02
2.193721e-02
3.165487e-02
3.961802e-02
3.044285e-02
2.103254e-02
1.212901e-02
3.787691e-03
1.925931e-04
2.049517e-03
9.561235e-03
1.497448e-02
2.144242e-02
2.354676e-02
1.736878e-02
1.540104e-02
9.029737e-03
8.558088e-04
3.282565e-04
5.130363e-03
1.605790e-02
2.551965e-02
3.499771e-02
3.659386e-02
3.196728e-02
2.561390e-02
1.456797e-02
4.263764e-03
1.041242e-03
5.501097e-04
6.095150e-03
1.222251e-02
1.661040e-02
2.059318e-02
1.594260e-02
1.115930e-02
5.703783e-03
3.723342e-04
9.947429e-05
5.163437e-03
1.961656e-02
2.919801e-02
3.280314e-02
4.212432e-02
3.748757e-02
2.836187e-02
1.672860e-02
5.186957e-03
1.853400e-04
1.421388e-03
6.474046e-03
1.019701e-02
1.670702e-02
2.423276e-02
2.106383e-02
1.570172e-02
7.957772e-03
5.138774e-04
1.242556e-04
4.449750e-03
1.461590e-02
2.474201e-02
3.048617e-02
3.683820e-02
3.054219e-02
2.347370e-02
1.537179e-02
4.194277e-03
1.118479e-03
4.014891e-04
6.722902e-03
1.117390e-02
1.711387e-02
2.533689e-02
1.724931e-02
1.353193e-02
7.668208e-03
9.511750e-04
2.377507e-04
4.586030e-03
1.535944e-02
2.343672e-02
3.299824e-02
3.742086e-02
3.519867e-02
2.828743e-02
1.878529e-02
5.949571e-03
1.526795e-03
6.692851e-06
3.229683e-03
8.501629e-03
1.500689e-02
2.310991e-02
1.783632e-02
1.155903e-02
4.495022e-03
7.463902e-05
1.661934e-04
3.869105e-03
1.612693e-02
2.307622e-02
3.415884e-02
4.384226e-02
3.280178e-02
2.619081e-02
1.975223e-02
9.202179e-03
2.006776e-03
2.764328e-04
5.439383e-03
1.323893e-02
1.778794e-02
1.995376e-02
1.756352e-02
1.433791e-02
7.597928e-03
6.960236e-04
1.278901e-04
4.236454e-03
1.339179e-02
2.088011e-02
2.867556e-02
3.783952e-02
3.417293e-02
2.790690e-02
2.005777e-02
6.863747e-03
1.830955e-03
3.665355e-04
6.752250e-03
1.005886e-02
1.559954e-02
1.937569e-02
1.298964e-02
1.010161e-02
6.147206e-03
5.633823e-04
2.587039e-05
4.310469e-03
1.478428e-02
2.263171e-02
3.458486e-02
4.246463e-02
2.918669e-02
2.644415e-02
1.652805e-02
5.469464e-03
8.828991e-04
4.236281e-04
5.888182e-03
1.095167e-02
1.488585e-02
2.017146e-02
1.622980e-02
1.298487e-02
7.638826e-03
8.033960e-04
4.111325e-04
5.100978e-03
1.568629e-02
2.351570e-02
3.467583e-02
4.904755e-02
4.226099e-02
3.635861e-02
2.072073e-02
6.301268e-03
1.965850e-03
4.983795e-05
2.236455e-03
7.369035e-03
1.411735e-02
2.034476e-02
1.829411e-02
1.379346e-02
7.016572e-03
5.390442e-04
4.092375e-04
6.340630e-03
2.325721e-02
3.325402e-02
3.854781e-02
4.686923e-02
3.484216e-02
3.269219e-02
2.657876e-02
1.343078e-02
4.508995e-03
1.244832e-04
4.366933e-03
9.047091e-03
1.544054e-02
2.277925e-02
1.866485e-02
1.367873e-02
7.393606e-03
1.262076e-03
4.768505e-05
2.848352e-03
1.355514e-02
2.421188e-02
3.503970e-02
4.171956e-02
3.222448e-02
2.780966e-02
2.107312e-02
7.632391e-03
2.630870e-03
2.964949e-05
3.483539e-03
8.008113e-03
1.456843e-02
2.049372e-02
1.841731e-02
1.801023e-02
1.033870e-02
1.291682e-03
3.243555e-06
2.671398e-03
1.185954e-02
1.859498e-02
3.101871e-02
3.817076e-02
3.453562e-02
3.151382e-02
1.999011e-02
6.939371e-03
2.124049e-03
8.927484e-05
5.033484e-03
8.422052e-03
1.625489e-02
2.316042e-02
1.710244e-02
1.355190e-02
8.304032e-03
4.348418e-04
2.442242e-04
3.466445e-03
1.287794e-02
2.598947e-02
3.218122e-02
4.384398e-02
3.941497e-02
3.322515e-02
2.522424e-02
8.912998e-03
3.160988e-03
6.492268e-05
3.924559e-03
8.207737e-03
1.049617e-02
1.550903e-02
1.469504e-02
1.363568e-02
7.051218e-03
8.951388e-04
1.642927e-04
5.067956e-03
1.552627e-02
2.374393e-02
3.617993e-02
4.430777e-02
3.774074e-02
3.398292e-02
2.437599e-02
9.568029e-03
4.229419e-03
2.645756e-05
3.678570e-03
9.171042e-03
1.576372e-02
2.200561e-02
1.834492e-02
1.334254e-02
8.121524e-03
1.107917e-03
3.209501e-05
1.959111e-03
1.037917e-02
1.880674e-02
3.135782e-02
4.274458e-02
3.761909e-02
3.160641e-02
2.242693e-02
8.754421e-03
2.670931e-03
8.126081e-05
1.725014e-03
7.445257e-03
1.341621e-02
2.136884e-02
1.642816e-02
1.262178e-02
7.838233e-03
1.567522e-03
2.839164e-04
1.072424e-03
1.135722e-02
1.992438e-02
2.831961e-02
3.777238e-02
3.015906e-02
2.837492e-02
2.358160e-02
1.055474e-02
2.265081e-03
3.720265e-06
2.832247e-03
8.002747e-03
1.401131e-02
1.914881e-02
1.785876e-02
1.774828e-02
1.064853e-02
1.649620e-03
2.406541e-06
3.093175e-03
1.258157e-02
2.355163e-02
3.086705e-02
3.751457e-02
3.833770e-02
3.497874e-02
2.461254e-02
1.233231e-02
4.097294e-03
1.695918e-04
2.006849e-03
7.047675e-03
1.132327e-02
1.766390e-02
1.486829e-02
1.250216e-02
7.287463e-03
1.414179e-03
7.033673e-05
2.566938e-03
1.041685e-02
2.248942e-02
2.990329e-02
3.703905e-02
3.746711e-02
3.102810e-02
2.440850e-02
1.259713e-02
4.038339e-03
6.318340e-05
2.262188e-03
7.937027e-03
1.351334e-02
1.679444e-02
1.713702e-02
1.417308e-02
7.646458e-03
1.877842e-03
6.024086e-05
2.248229e-03
9.404602e-03
1.990836e-02
2.649260e-02
3.150336e-02
3.393664e-02
2.840386e-02
2.250415e-02
1.324798e-02
4.579328e-03
5.594636e-04
1.719238e-03
7.759087e-03
1.045138e-02
1.555090e-02
1.744849e-02
1.251308e-02
7.261768e-03
2.245037e-03
6.454917e-06
2.205524e-03
9.767503e-03
2.290588e-02
3.509973e-02
4.450998e-02
4.723111e-02
3.084118e-02
2.327246e-02
1.153808e-02
3.549708e-03
9.776665e-04
8.502203e-04
5.068566e-03
1.026243e-02
1.770607e-02
1.642470e-02
1.286202e-02
7.545750e-03
1.634070e-03
1.511039e-04
2.476376e-03
1.014049e-02
1.915940e-02
2.759920e-02
3.479391e-02
3.707701e-02
3.505033e-02
2.599882e-02
1.355182e-02
2.918154e-03
1.395865e-05
1.317014e-03
5.746374e-03
1.043529e-02
1.474624e-02
1.925814e-02
1.746627e-02
1.194181e-02
4.033764e-03
1.091263e-04
1.200269e-03
7.429678e-03
1.666767e-02
2.573103e-02
3.118359e-02
3.175798e-02
2.692577e-02
2.331710e-02
1.344973e-02
5.413135e-03
8.204140e-04
1.531195e-03
9.051555e-03
1.627921e-02
2.278112e-02
2.225222e-02
1.682923e-02
1.245408e-02
5.356768e-03
3.703487e-04
1.842473e-04
4.817829e-03
1.310402e-02
2.158245e-02
2.841139e-02
3.280884e-02
2.855156e-02
2.072948e-02
9.945687e-03
1.956313e-03
2.891435e-05
2.272679e-03
1.082356e-02
1.568675e-02
2.343497e-02
2.799235e-02
2.367957e-02
1.541766e-02
7.988430e-03
5.437720e-04
4.364526e-04
4.540614e-03
1.344197e-02
2.346059e-02
3.017790e-02
3.520852e-02
3.043581e-02
2.247762e-02
1.300084e-02
4.068411e-03
7.320680e-04
1.344650e-03
8.690635e-03
1.286213e-02
1.683005e-02
1.785082e-02
1.348188e-02
1.048574e-02
5.589223e-03
5.471295e-04
8.348867e-04
8.047282e-03
1.584679e-02
2.301574e-02
2.967251e-02
3.501701e-02
2.860289e-02
2.485119e-02
1.358015e-02
2.595599e-03
5.035772e-04
5.132435e-04
4.838165e-03
1.064151e-02
1.754208e-02
2.022554e-02
1.680045e-02
1.143354e-02
6.360434e-03
1.067148e-03
1.772417e-05
4.054793e-03
1.410525e-02
2.298113e-02
2.885043e-02
3.521228e-02
3.128897e-02
2.229605e-02
1.420132e-02
4.194741e-03
3.728159e-04
9.399542e-04
6.111968e-03
1.322346e-02
1.986419e-02
2.425902e-02
2.077889e-02
1.542154e-02
6.037049e-03
1.090669e-03
2.497328e-05
3.520262e-03
1.107144e-02
2.032854e-02
3.220573e-02
3.819913e-02
3.178068e-02
2.587658e-02
1.471301e-02
4.355317e-03
7.683185e-04
1.155532e-03
8.197246e-03
1.317450e-02
1.642650e-02
2.182736e-02
1.756119e-02
1.137033e-02
7.895019e-03
9.886338e-04
1.443879e-04
3.206115e-03
1.243644e-02
2.211965e-02
2.704375e-02
3.631973e-02
2.837207e-02
2.264072e-02
1.279230e-02
3.046684e-03
9.779055e-04
1.125983e-03
7.086949e-03
1.075683e-02
1.713128e-02
2.461988e-02
1.653586e-02
1.468989e-02
9.017013e-03
1.580456e-03
2.895787e-05
4.084091e-03
1.316310e-02
1.956661e-02
2.760567e-02
3.406802e-02
2.970300e-02
2.503001e-02
1.634830e-02
4.287232e-03
7.844839e-04
1.087766e-04
4.392845e-03
8.701662e-03
1.319439e-02
2.059378e-02
1.665015e-02
1.385349e-02
7.373461e-03
1.018890e-03
1.026298e-04
5.295755e-03
1.680838e-02
2.253852e-02
2.971845e-02
3.586144e-02
2.500303e-02
2.000790e-02
1.469727e-02
3.924509e-03
1.079088e-03
2.971844e-04
4.789820e-03
1.147079e-02
1.675641e-02
2.013473e-02
1.528471e-02
1.158465e-02
7.028379e-03
8.542115e-04
2.145870e-05
2.051769e-03
1.256448e-02
1.787359e-02
2.488324e-02
3.111135e-02
2.319836e-02
1.837008e-02
1.194768e-02
2.738047e-03
4.087997e-04
3.779092e-04
5.923749e-03
1.116413e-02
1.423626e-02
2.348137e-02
1.948278e-02
1.458109e-02
7.470198e-03
6.447123e-04
3.590769e-04
4.213809e-03
1.285710e-02
1.884195e-02
2.542967e-02
3.093380e-02
2.907441e-02
2.540372e-02
1.418155e-02
5.411711e-03
1.439156e-03
1.178545e-04
5.062907e-03
9.258286e-03
1.506379e-02
2.029371e-02
1.585744e-02
1.171678e-02
7.889551e-03
1.257816e-03
1.615595e-05
3.182731e-03
1.352959e-02
2.080979e-02
2.573676e-02
3.344543e-02
3.030889e-02
2.637294e-02
1.643865e-02
6.185040e-03
2.519954e-03
2.655011e-04
4.348994e-03
1.000740e-02
1.732058e-02
2.262377e-02
1.794698e-02
1.484022e-02
7.706136e-03
1.237498e-03
9.426187e-08
3.301631e-03
1.121798e-02
1.555424e-02
2.405413e-02
3.407233e-02
2.862344e-02
2.636610e-02
1.849980e-02
5.888863e-03
2.199243e-03
2.357709e-06
4.473692e-03
1.025588e-02
1.516214e-02
1.974825e-02
1.691517e-02
1.330813e-02
8.013836e-03
2.105850e-03
1.971276e-04
1.523989e-03
8.866402e-03
1.316219e-02
2.519932e-02
3.070271e-02
2.862155e-02
2.621593e-02
1.896254e-02
5.766870e-03
1.120978e-03
7.042367e-04
6.660723e-03
1.346748e-02
1.797408e-02
2.220161e-02
1.858436e-02
1.333934e-02
8.617906e-03
1.662543e-03
1.391073e-04
1.450778e-03
6.500956e-03
1.420569e-02
2.490430e-02
2.999238e-02
2.487734e-02
2.439043e-02
1.500850e-02
5.247040e-03
1.238051e-03
1.759221e-04
5.036184e-03
8.957915e-03
1.530102e-02
2.396730e-02
2.056894e-02
1.978964e-02
9.329030e-03
1.917929e-03
6.076151e-05
2.119509e-03
7.745428e-03
1.602789e-02
2.802996e-02
3.500543e-02
2.973942e-02
2.251927e-02
1.492815e-02
5.511235e-03
1.220918e-03
1.664194e-04
3.757234e-03
1.043726e-02
1.305677e-02
1.621742e-02
1.329690e-02
1.458354e-02
1.113396e-02
3.309496e-03
3.074998e-04
1.551619e-03
1.142102e-02
1.905289e-02
2.599271e-02
3.195872e-02
2.957159e-02
2.529942e-02
1.810523e-02
8.675660e-03
2.688938e-03
2.124586e-06
2.377986e-03
6.661410e-03
1.362664e-02
1.771177e-02
1.672446e-02
1.361290e-02
7.999447e-03
1.900870e-03
4.961098e-06
2.080269e-03
8.783901e-03
1.658085e-02
2.494073e-02
3.156608e-02
2.854535e-02
2.403492e-02
1.639006e-02
6.138529e-03
1.047931e-03
1.390709e-05
4.095259e-03
8.489817e-03
1.580049e-02
2.150383e-02
2.040985e-02
1.645166e-02
9.274720e-03
2.219242e-03
4.130202e-05
1.945634e-03
9.435403e-03
1.565655e-02
2.218883e-02
3.170332e-02
2.652910e-02
2.249395e-02
1.843365e-02
7.818035e-03
2.144406e-03
1.996417e-04
1.484570e-03
4.860728e-03
1.154307e-02
1.732952e-02
1.948749e-02
1.708756e-02
9.042720e-03
1.187157e-03
1.746807e-05
1.634891e-03
9.684388e-03
1.727168e-02
2.435395e-02
3.229751e-02
2.904765e-02
2.843737e-02
2.067669e-02
1.075614e-02
2.565948e-03
7.747941e-05
4.304848e-03
6.985816e-03
1.113482e-02
1.829875e-02
1.798787e-02
1.575588e-02
1.083848e-02
2.630370e-03
2.337989e-05
7.420833e-04
5.559224e-03
1.365141e-02
2.146267e-02
2.983489e-02
3.131418e-02
2.447798e-02
1.625674e-02
7.900534e-03
2.869121e-03
5.943015e-05
3.369202e-03
1.035260e-02
1.806962e-02
2.221462e-02
1.775561e-02
1.262246e-02
1.263638e-02
6.169579e-03
8.096785e-04
5.421051e-04
5.487710e-03
1.591028e-02
2.429704e-02
2.645369e-02
2.616698e-02
2.528652e-02
1.958833e-02
8.123187e-03
2.707713e-03
2.013268e-04
2.034199e-03
9.529660e-03
1.658796e-02
1.830957e-02
2.141964e-02
1.677079e-02
1.046347e-02
4.415798e-03
4.016636e-04
7.848424e-04
7.031012e-03
1.494742e-02
2.074777e-02
2.901137e-02
3.255811e-02
3.050631e-02
1.933600e-02
8.383288e-03
1.751129e-03
1.218097e-07
8.567738e-04
4.462581e-03
1.106044e-02
1.554647e-02
1.948550e-02
1.632645e-02
9.842117e-03
3.408589e-03
1.877251e-04
7.495547e-04
5.923288e-03
1.614544e-02
2.342965e-02
2.682629e-02
3.071495e-02
2.671511e-02
1.874613e-02
1.181530e-02
5.293292e-03
5.189460e-04
1.304815e-03
6.121056e-03
1.342179e-02
1.874171e-02
1.962083e-02
1.392521e-02
9.537519e-03
5.540396e-03
6.464980e-04
4.105715e-04
4.788537e-03
1.506187e-02
2.621868e-02
2.849676e-02
3.029908e-02
2.728062e-02
2.016307e-02
1.119795e-02
3.123243e-03
4.458603e-04
1.678765e-03
7.091832e-03
1.006628e-02
1.540013e-02
1.985773e-02
1.515509e-02
1.246340e-02
5.381113e-03
2.136932e-04
4.091232e-04
4.387727e-03
1.221750e-02
1.862307e-02
2.821088e-02
3.384890e-02
3.151793e-02
2.182728e-02
1.225946e-02
3.347800e-03
6.437805e-04
7.647825e-04
5.290479e-03
9.197557e-03
1.399293e-02
1.924873e-02
1.319038e-02
8.495438e-03
3.453402e-03
3.325522e-05
4.948383e-04
5.701792e-03
1.505028e-02
2.152194e-02
2.760910e-02
3.263565e-02
2.656792e-02
2.040234e-02
1.419921e-02
3.745930e-03
5.552170e-04
9.965444e-04
5.780711e-03
8.442176e-03
1.333166e-02
1.741312e-02
1.260470e-02
9.401555e-03
4.984546e-03
1.102913e-04
1.022525e-03
5.850174e-03
1.446393e-02
2.022055e-02
2.463323e-02
2.652320e-02
2.767382e-02
2.170808e-02
1.590368e-02
4.317927e-03
1.076904e-03
8.474173e-04
6.567179e-03
1.003546e-02
1.437836e-02
1.729063e-02
1.447867e-02
1.033748e-02
4.997076e-03
8.186078e-04
1.391035e-04
4.133899e-03
1.261481e-02
1.800003e-02
2.636420e-02
2.788224e-02
2.409235e-02
1.809202e-02
9.807612e-03
3.162824e-03
4.456789e-04
3.670566e-04
3.430134e-03
7.401698e-03
1.647388e-02
2.136583e-02
1.496461e-02
1.012043e-02
4.431279e-03
4.793139e-04
7.876978e-05
2.199244e-03
1.085114e-02
1.784806e-02
2.530924e-02
2.775709e-02
2.175802e-02
1.740844e-02
1.096115e-02
2.165710e-03
4.933730e-04
7.853484e-04
5.790946e-03
8.130192e-03
1.121239e-02
1.629419e-02
1.278771e-02
9.601261e-03
4.822065e-03
2.637732e-04
2.463102e-04
5.187210e-03
1.093029e-02
1.583591e-02
2.436465e-02
3.024634e-02
2.355639e-02
1.929673e-02
1.296119e-02
3.621371e-03
8.545364e-04
5.403643e-04
4.585153e-03
8.207470e-03
1.216318e-02
1.433467e-02
1.064353e-02
9.422267e-03
5.398889e-03
3.713372e-04
2.845183e-04
3.870948e-03
1.200442e-02
1.838806e-02
2.319762e-02
2.883405e-02
2.434251e-02
1.984496e-02
1.480143e-02
5.061502e-03
9.479133e-04
3.767388e-04
2.656515e-03
5.925455e-03
1.088303e-02
1.624212e-02
1.058873e-02
1.259884e-02
7.053533e-03
1.284326e-04
1.333199e-04
2.733331e-03
1.330360e-02
1.960617e-02
2.440693e-02
3.089542e-02
2.202224e-02
1.658064e-02
1.157192e-02
3.798501e-03
1.511525e-03
1.445998e-07
3.035791e-03
7.079988e-03
1.105694e-02
1.498610e-02
1.033114e-02
8.623644e-03
3.957891e-03
2.586591e-04
1.087662e-04
3.182551e-03
1.323881e-02
1.663050e-02
2.458061e-02
3.319757e-02
2.243165e-02
2.116929e-02
1.307893e-02
5.039990e-03
2.979972e-03
2.714244e-05
3.537993e-03
6.349538e-03
1.215094e-02
1.672570e-02
1.302144e-02
1.100454e-02
6.544077e-03
4.118126e-04
2.926973e-04
3.319310e-03
1.055962e-02
1.560889e-02
1.863830e-02
3.016158e-02
2.836059e-02
2.342841e-02
1.641591e-02
6.705777e-03
2.462762e-03
1.699101e-05
2.801853e-03
6.971947e-03
1.355739e-02
1.823332e-02
1.467994e-02
1.000384e-02
4.924701e-03
7.401843e-04
2.455184e-05
1.336094e-03
8.343325e-03
1.623148e-02
2.476255e-02
3.282328e-02
2.556141e-02
2.259609e-02
1.500042e-02
5.611859e-03
2.415618e-03
1.985905e-04
4.358063e-03
5.912487e-03
1.028239e-02
1.159942e-02
7.274024e-03
8.130338e-03
6.416172e-03
8.344865e-04
2.170058e-05
2.418762e-03
9.721775e-03
1.588699e-02
2.154740e-02
3.261985e-02
2.856111e-02
2.417177e-02
1.633488e-02
5.331169e-03
1.616427e-03
1.900305e-05
3.307230e-03
6.986062e-03
1.182715e-02
1.424937e-02
1.188535e-02
9.440844e-03
6.280030e-03
1.210686e-03
2.247988e-06
2.378799e-03
8.498463e-03
1.403006e-02
2.268910e-02
2.819017e-02
2.455351e-02
2.259674e-02
1.445430e-02
5.983240e-03
1.713640e-03
9.677743e-07
4.468799e-03
5.999728e-03
1.061875e-02
1.602885e-02
1.075111e-02
1.283373e-02
5.620157e-03
9.087268e-04
8.925016e-06
2.871545e-03
8.656808e-03
1.601521e-02
2.532309e-02
3.365366e-02
2.634340e-02
2.540825e-02
1.754898e-02
7.375786e-03
3.091992e-03
4.406730e-05
2.074103e-03
4.961210e-03
8.633493e-03
1.455312e-02
1.371312e-02
1.186131e-02
5.132613e-03
4.205953e-04
8.729141e-05
2.763747e-03
8.452784e-03
1.765805e-02
2.692051e-02
3.348838e-02
3.187691e-02
2.646949e-02
1.544870e-02
5.812197e-03
1.610678e-03
3.078773e-07
3.787881e-03
6.743706e-03
9.431811e-03
1.551367e-02
1.343826e-02
1.026863e-02
6.869305e-03
1.927317e-03
7.958926e-07
2.323846e-03
1.118842e-02
1.798138e-02
2.665462e-02
3.058913e-02
2.974572e-02
2.813672e-02
2.034292e-02
8.693529e-03
3.609623e-03
1.019160e-04
1.844208e-03
5.750660e-03
9.418570e-03
1.366719e-02
1.284105e-02
9.411780e-03
5.447200e-03
1.040388e-03
1.891039e-05
2.351228e-03
9.190847e-03
1.460628e-02
2.296529e-02
2.773535e-02
2.529874e-02
2.567658e-02
1.917072e-02
1.191855e-02
3.533334e-03
3.862247e-04
1.022487e-03
5.540277e-03
1.096911e-02
1.465630e-02
1.294979e-02
1.020559e-02
5.563017e-03
1.393828e-03
8.498126e-06
1.259099e-03
8.066826e-03
1.517610e-02
2.264532e-02
3.252860e-02
2.895780e-02
2.593559e-02
1.837075e-02
9.995994e-03
3.008721e-03
1.828529e-04
9.871890e-04
5.502419e-03
1.259643e-02
1.463287e-02
1.387745e-02
1.111326e-02
6.860598e-03
1.245929e-03
3.645106e-08
1.665025e-03
1.015412e-02
1.638616e-02
2.444144e-02
2.948822e-02
2.803408e-02
2.546847e-02
1.852734e-02
1.052931e-02
4.866047e-03
5.057433e-05
1.539914e-03
5.824097e-03
1.057668e-02
1.312075e-02
1.697068e-02
1.334277e-02
1.025364e-02
2.991349e-03
5.968647e-05
1.775999e-03
9.267278e-03
1.441741e-02
2.418467e-02
2.895341e-02
3.120331e-02
2.699498e-02
1.852883e-02
1.071289e-02
2.705373e-03
4.149949e-04
6.680483e-04
5.356629e-03
1.141058e-02
1.804736e-02
1.979939e-02
1.506553e-02
9.623483e-03
2.415466e-03
1.070695e-07
1.918125e-03
8.628429e-03
1.549177e-02
2.223403e-02
2.378925e-02
2.854064e-02
2.653421e-02
2.202710e-02
1.117684e-02
3.424928e-03
7.496048e-04
7.906084e-04
5.554892e-03
9.833161e-03
1.733539e-02
1.648168e-02
1.242621e-02
7.066233e-03
2.331126e-03
6.012812e-06
1.871144e-03
9.263160e-03
1.415918e-02
1.865942e-02
2.316800e-02
2.344429e-02
2.793797e-02
2.017800e-02
1.059235e-02
2.617868e-03
7.606290e-05
1.766848e-03
6.540465e-03
1.085906e-02
1.643251e-02
1.847613e-02
1.133015e-02
6.982004e-03
2.385224e-03
3.676091e-04
5.105354e-04
4.845207e-03
1.113890e-02
2.117996e-02
2.621041e-02
2.756833e-02
2.160030e-02
1.880267e-02
1.198836e-02
2.900126e-03
5.072719e-04
1.211618e-03
7.462960e-03
1.084321e-02
1.501704e-02
1.757307e-02
1.239322e-02
9.996452e-03
4.710372e-03
5.568085e-04
2.308307e-04
4.628263e-03
1.414592e-02
2.023155e-02
2.871200e-02
3.449422e-02
2.719710e-02
2.151974e-02
1.374046e-02
3.622148e-03
4.277593e-04
4.433078e-04
4.609330e-03
9.210846e-03
1.374020e-02
2.142015e-02
1.384264e-02
9.796430e-03
4.199879e-03
9.812872e-04
2.286121e-04
3.358388e-03
1.049196e-02
2.061578e-02
2.595007e-02
3.065642e-02
2.233931e-02
1.684133e-02
1.140590e-02
2.964902e-03
6.240261e-04
7.677261e-04
4.434756e-03
6.835727e-03
1.106033e-02
1.700165e-02
1.436950e-02
1.138029e-02
5.990424e-03
2.024735e-04
3.093928e-04
6.489359e-03
1.037614e-02
1.853218e-02
2.391749e-02
2.970663e-02
2.211981e-02
1.683459e-02
1.120122e-02
2.740091e-03
6.281512e-04
1.292436e-03
6.077852e-03
1.095573e-02
1.497899e-02
1.767618e-02
1.288485e-02
1.017946e-02
5.367147e-03
4.469208e-04
4.122981e-04
3.938103e-03
1.202985e-02
1.755170e-02
2.522986e-02
2.632907e-02
2.281551e-02
1.843490e-02
1.059590e-02
2.335273e-03
6.092427e-04
3.065272e-04
6.118476e-03
1.102801e-02
1.589154e-02
2.195754e-02
1.428933e-02
1.125442e-02
5.753731e-03
3.304835e-04
7.252062e-05
3.967143e-03
1.082132e-02
1.666359e-02
2.195935e-02
3.009701e-02
2.635179e-02
2.072448e-02
1.212905e-02
2.841567e-03
1.044605e-03
2.353758e-04
4.293091e-03
8.261118e-03
1.484678e-02
1.776572e-02
1.365506e-02
1.161153e-02
7.669447e-03
1.812901e-03
6.572993e-06
3.091234e-03
1.123208e-02
1.623956e-02
1.908465e-02
2.330972e-02
2.331288e-02
2.148967e-02
1.300457e-02
3.522934e-03
5.697196e-04
1.417603e-04
4.960658e-03
6.868916e-03
1.357638e-02
2.523519e-02
1.673935e-02
1.329123e-02
5.955467e-03
4.427887e-04
5.573541e-06
2.673077e-03
1.114939e-02
2.043902e-02
2.275958e-02
3.193339e-02
2.021712e-02
1.810748e-02
1.183895e-02
3.104053e-03
4.727200e-04
6.931488e-04
5.069018e-03
8.433688e-03
1.216716e-02
1.837770e-02
1.660505e-02
1.313612e-02
7.500967e-03
1.032323e-03
5.836551e-05
2.952126e-03
1.035139e-02
1.786085e-02
2.370841e-02
2.521448e-02
2.106712e-02
1.494035e-02
1.107070e-02
3.455586e-03
5.552429e-04
4.940909e-04
5.831632e-03
9.846890e-03
1.432081e-02
1.679625e-02
1.301286e-02
9.508912e-03
5.174330e-03
2.806171e-04
8.439160e-06
1.691022e-03
1.025440e-02
1.467203e-02
2.058811e-02
3.009717e-02
2.400297e-02
1.934982e-02
1.082184e-02
4.141077e-03
2.047353e-04
5.207181e-04
5.563878e-03
8.306204e-03
1.248983e-02
1.863602e-02
1.330389e-02
1.106282e-02
7.541906e-03
1.078418e-03
1.982403e-06
2.280191e-03
9.537920e-03
1.628017e-02
2.064081e-02
2.673087e-02
2.312007e-02
2.018698e-02
1.500042e-02
3.289018e-03
8.861321e-04
1.658618e-04
4.189303e-03
1.077366e-02
1.504352e-02
1.931228e-02
1.513998e-02
9.398373e-03
5.102997e-03
1.530359e-03
2.114217e-04
6.744776e-04
9.995995e-03
1.759001e-02
2.262281e-02
2.497737e-02
2.083254e-02
1.710672e-02
1.294314e-02
4.133823e-03
6.886819e-04
3.549299e-04
4.648821e-03
6.483920e-03
1.076464e-02
1.840105e-02
1.741253e-02
1.384493e-02
7.601569e-03
1.066943e-03
1.159567e-05
1.580922e-03
6.692944e-03
1.385195e-02
1.952833e-02
2.897820e-02
2.325398e-02
2.178082e-02
1.495403e-02
5.134192e-03
1.728897e-03
1.510833e-04
3.773644e-03
8.196312e-03
1.227279e-02
2.002535e-02
1.637325e-02
1.384420e-02
8.966539e-03
1.975104e-03
4.407263e-05
1.766638e-03
7.519633e-03
1.386150e-02
1.989756e-02
2.459522e-02
2.212867e-02
1.990895e-02
1.414634e-02
4.561295e-03
1.474096e-03
1.004577e-04
3.428642e-03
6.686038e-03
1.263195e-02
1.885750e-02
1.168273e-02
1.151704e-02
5.709132e-03
1.813311e-03
3.340274e-04
9.433055e-04
6.633895e-03
1.296310e-02
1.983006e-02
2.434292e-02
2.233405e-02
1.839436e-02
1.475157e-02
5.092634e-03
1.061232e-03
1.512905e-04
3.863765e-03
6.917963e-03
1.144243e-02
1.850249e-02
1.502340e-02
1.164133e-02
9.393277e-03
1.991361e-03
3.944536e-06
8.447007e-04
7.327768e-03
1.375949e-02
1.876081e-02
2.622544e-02
2.241718e-02
2.074498e-02
1.323986e-02
4.234082e-03
1.114604e-03
1.154202e-04
3.952256e-03
9.196854e-03
1.463832e-02
1.968438e-02
1.668668e-02
1.381025e-02
5.756054e-03
1.883087e-03
1.472282e-04
1.170448e-03
6.469539e-03
1.076230e-02
1.740197e-02
2.319923e-02
2.216940e-02
1.946409e-02
1.238214e-02
4.537225e-03
7.828680e-04
1.051325e-04
3.115731e-03
8.272270e-03
1.112940e-02
1.975129e-02
1.631564e-02
1.248254e-02
8.042791e-03
2.652197e-03
4.649474e-05
7.746374e-04
6.334397e-03
1.434151e-02
1.714418e-02
2.095493e-02
2.034093e-02
2.052015e-02
1.517940e-02
7.520410e-03
2.630133e-03
1.532127e-05
4.204715e-03
6.503787e-03
1.427102e-02
1.600370e-02
1.813874e-02
1.461442e-02
8.832925e-03
3.238532e-03
4.378554e-04
2.680481e-04
4.436249e-03
1.033344e-02
1.619297e-02
2.274135e-02
2.116085e-02
2.023350e-02
1.456499e-02
5.673397e-03
1.627505e-03
6.188241e-06
3.306268e-03
8.121860e-03
1.161513e-02
1.666457e-02
1.751387e-02
1.216254e-02
8.797974e-03
3.962808e-03
3.882869e-04
3.620010e-04
6.664489e-03
1.069741e-02
1.726249e-02
2.325696e-02
2.400591e-02
2.087690e-02
1.258166e-02
6.789329e-03
1.125607e-03
2.614522e-05
1.506779e-03
6.168229e-03
1.492220e-02
1.784609e-02
1.917962e-02
1.413226e-02
9.213313e-03
5.552640e-03
9.100226e-04
5.908756e-04
4.997555e-03
1.248059e-02
1.846762e-02
2.169823e-02
2.283742e-02
2.096986e-02
1.857251e-02
8.142650e-03
1.371763e-03
8.035579e-06
1.603132e-03
7.193143e-03
1.333329e-02
1.972234e-02
2.023814e-02
1.784406e-02
1.045262e-02
4.026024e-03
6.118817e-04
4.482874e-04
5.254167e-03
1.280263e-02
1.908470e-02
2.345908e-02
2.370366e-02
1.987377e-02
1.292611e-02
8.050013e-03
1.345924e-03
7.517947e-07
1.410955e-03
5.711046e-03
1.291422e-02
1.718108e-02
2.017147e-02
1.630423e-02
1.072785e-02
2.540364e-03
4.391178e-05
8.582241e-04
3.669308e-03
1.035193e-02
1.660506e-02
2.198526e-02
2.281100e-02
1.941476e-02
1.147493e-02
5.340266e-03
1.534663e-03
9.801113e-06
3.233744e-03
1.047611e-02
1.657510e-02
1.765481e-02
1.906887e-02
1.565336e-02
1.221568e-02
6.958214e-03
1.006725e-03
9.152400e-06
2.996324e-03
7.331147e-03
1.343768e-02
1.655596e-02
2.311866e-02
2.047419e-02
1.535308e-02
8.737006e-03
1.607875e-03
5.543633e-05
2.506823e-03
9.525129e-03
1.272580e-02
1.697879e-02
1.998171e-02
1.545914e-02
1.176690e-02
6.892897e-03
5.492083e-04
2.374548e-04
3.567249e-03
9.365541e-03
1.111795e-02
1.972108e-02
2.541368e-02
2.095599e-02
1.638930e-02
9.416454e-03
9.933151e-04
3.328355e-04
1.635255e-03
7.150409e-03
1.476446e-02
1.993664e-02
2.210657e-02
1.677302e-02
1.099389e-02
6.863201e-03
1.678250e-03
2.680256e-05
2.564038e-03
9.660482e-03
1.530508e-02
2.075908e-02
2.176416e-02
1.732256e-02
1.315695e-02
7.667587e-03
1.066247e-03
1.497074e-05
1.184526e-03
8.435152e-03
1.142457e-02
1.531916e-02
2.257396e-02
1.998947e-02
1.296049e-02
5.874860e-03
8.480483e-04
2.173354e-05
2.239176e-03
7.246285e-03
1.266797e-02
2.069912e-02
2.628186e-02
2.192307e-02
1.463149e-02
7.683150e-03
1.241964e-03
2.699287e-05
1.534012e-03
7.894495e-03
1.200866e-02
1.432121e-02
1.638715e-02
1.314024e-02
1.042347e-02
4.264222e-03
1.330645e-03
3.445776e-05
3.100428e-03
9.428218e-03
1.654540e-02
2.236269e-02
2.444516e-02
1.759924e-02
1.352729e-02
9.024835e-03
2.752528e-03
2.424369e-04
1.865982e-03
6.988000e-03
1.174836e-02
1.411747e-02
1.701288e-02
1.448712e-02
1.301038e-02
7.681205e-03
1.102501e-03
1.607835e-05
3.442685e-03
9.725388e-03
1.621636e-02
1.895019e-02
2.464910e-02
1.968756e-02
1.570402e-02
9.002629e-03
2.350380e-03
3.449479e-04
5.617993e-04
5.086746e-03
9.515828e-03
1.314890e-02
2.031421e-02
1.629277e-02
1.178107e-02
7.598937e-03
1.389194e-03
4.716269e-06
4.233060e-03
9.629679e-03
1.531224e-02
2.199471e-02
2.331062e-02
1.689938e-02
1.508518e-02
9.617972e-03
1.874090e-03
6.746344e-04
1.755238e-04
3.822255e-03
7.510287e-03
1.141205e-02
2.053302e-02
1.491895e-02
1.060817e-02
6.932262e-03
1.054157e-03
5.544768e-07
1.657270e-03
7.873047e-03
1.285076e-02
1.887862e-02
2.256494e-02
1.665621e-02
1.540116e-02
1.073730e-02
2.625382e-03
6.065270e-04
5.069795e-04
5.901230e-03
9.572328e-03
1.387204e-02
1.875193e-02
1.579964e-02
1.229775e-02
6.449249e-03
8.025860e-04
2.352222e-06
3.022169e-03
8.382180e-03
1.454042e-02
1.964341e-02
2.552142e-02
2.013031e-02
1.906322e-02
1.258912e-02
3.239337e-03
4.366965e-04
9.005396e-04
6.724913e-03
7.643171e-03
1.274010e-02
1.798244e-02
1.286721e-02
1.177007e-02
5.838428e-03
5.409224e-04
3.247591e-06
5.999625e-04
5.210277e-03
1.159163e-02
1.795553e-02
2.540075e-02
2.044105e-02
1.386785e-02
8.397070e-03
2.559030e-03
5.507285e-04
6.935908e-04
5.140992e-03
9.422839e-03
1.379071e-02
1.946721e-02
1.478837e-02
1.276523e-02
8.593972e-03
1.635626e-03
8.805469e-06
2.034649e-03
8.376705e-03
1.408283e-02
1.875302e-02
2.268733e-02
1.792899e-02
1.632657e-02
8.777821e-03
1.570021e-03
6.020527e-04
1.709103e-03
5.521283e-03
1.071087e-02
1.628336e-02
1.959607e-02
1.441509e-02
1.292439e-02
1.024668e-02
2.361427e-03
3.511728e-04
1.180638e-03
7.864076e-03
1.285744e-02
1.623288e-02
2.148175e-02
1.939403e-02
1.549620e-02
1.025600e-02
2.292630e-03
1.135000e-04
3.927271e-04
4.975395e-03
9.975829e-03
1.713471e-02
2.514112e-02
2.020563e-02
1.725401e-02
8.951291e-03
2.601766e-03
7.919115e-05
6.498754e-04
5.538940e-03
1.150660e-02
1.409993e-02
1.754217e-02
1.610971e-02
1.398235e-02
8.738283e-03
3.451760e-03
3.389706e-04
7.693118e-04
6.623684e-03
1.110150e-02
1.797160e-02
2.114580e-02
1.684157e-02
1.353431e-02
9.196672e-03
3.455950e-03
1.344095e-03
3.183292e-04
3.814090e-03
1.065150e-02
1.433734e-02
2.002278e-02
1.733674e-02
1.585757e-02
1.217489e-02
2.363775e-03
8.815708e-05
1.195575e-03
8.099774e-03
1.181174e-02
1.984650e-02
2.660603e-02
2.304736e-02
2.025281e-02
1.032746e-02
3.328386e-03
7.366452e-04
1.994419e-05
4.102043e-03
8.719363e-03
1.445838e-02
1.939569e-02
1.977993e-02
1.493483e-02
9.510515e-03
3.180939e-03
2.024631e-04
1.715904e-03
6.879826e-03
1.179641e-02
1.654091e-02
2.164763e-02
2.002523e-02
2.008930e-02
1.251619e-02
4.537951e-03
6.403401e-04
2.698216e-04
3.962496e-03
1.029457e-02
1.434853e-02
2.183449e-02
1.827718e-02
1.458016e-02
8.791076e-03
2.154005e-03
5.361878e-04
4.009471e-04
4.448801e-03
1.106478e-02
1.684135e-02
2.193690e-02
2.059385e-02
1.810613e-02
1.400499e-02
5.105308e-03
1.161715e-03
2.367593e-04
5.202421e-03
1.009225e-02
1.429935e-02
2.231822e-02
1.917355e-02
1.699159e-02
1.130267e-02
3.781279e-03
3.527787e-04
5.742736e-04
5.798466e-03
1.313382e-02
1.726807e-02
2.274817e-02
1.852921e-02
1.604624e-02
1.128963e-02
3.157228e-03
6.519294e-04
3.033669e-04
3.650445e-03
9.464159e-03
1.487717e-02
2.176243e-02
2.103073e-02
1.753102e-02
1.201108e-02
3.897828e-03
9.810113e-04
1.210719e-04
3.234201e-03
8.497663e-03
1.401632e-02
1.998102e-02
2.050010e-02
1.764849e-02
1.018562e-02
3.655375e-03
7.107389e-04
2.102268e-04
3.462049e-03
7.318674e-03
1.456689e-02
2.044066e-02
1.727034e-02
1.620415e-02
1.237707e-02
4.838182e-03
1.431366e-03
5.754200e-05
4.239832e-03
9.164855e-03
1.502435e-02
1.925595e-02
1.642367e-02
1.565981e-02
1.253918e-02
5.042814e-03
1.223651e-03
8.930755e-05
4.073524e-03
1.146086e-02
1.692268e-02
2.123706e-02
1.922019e-02
1.814008e-02
1.132587e-02
4.840160e-03
1.013861e-03
1.343700e-04
3.636275e-03
1.175628e-02
1.686864e-02
2.215542e-02
2.482936e-02
2.123424e-02
1.283042e-02
6.694106e-03
1.244977e-03
5.167288e-05
2.739068e-03
7.978631e-03
1.332171e-02
2.019493e-02
2.199516e-02
1.869007e-02
1.438984e-02
7.654516e-03
1.366139e-03
1.200704e-05
3.634289e-03
9.612938e-03
1.666285e-02
2.187792e-02
2.361432e-02
2.147330e-02
1.524607e-02
7.539856e-03
1.633836e-03
5.614329e-06
2.056017e-03
1.211107e-02
1.656899e-02
2.118929e-02
2.131392e-02
1.779058e-02
1.180558e-02
6.994513e-03
1.787965e-03
7.494476e-05
4.397399e-03
1.041250e-02
1.433970e-02
1.936723e-02
2.442656e-02
1.936188e-02
1.438571e-02
6.754672e-03
5.726328e-04
1.307624e-04
2.753793e-03
8.838114e-03
1.490968e-02
2.257547e-02
2.836521e-02
2.633383e-02
1.914332e-02
7.942722e-03
1.485094e-03
4.613999e-06
3.156219e-03
9.121048e-03
1.616220e-02
2.210082e-02
2.684824e-02
2.055049e-02
1.445371e-02
8.322273e-03
1.441839e-03
2.665146e-05
2.384403e-03
1.104366e-02
1.815479e-02
2.204324e-02
2.368544e-02
2.172392e-02
1.501336e-02
7.570743e-03
2.091016e-03
5.014348e-05
2.503599e-03
8.973075e-03
1.471254e-02
1.945932e-02
2.400361e-02
1.883198e-02
1.368994e-02
6.570551e-03
1.246582e-03
1.453806e-05
3.267190e-03
8.641778e-03
1.634314e-02
2.386013e-02
2.581299e-02
2.275357e-02
1.712047e-02
8.132110e-03
1.315951e-03
1.284018e-04
1.588679e-03
7.741077e-03
1.296373e-02
2.084671e-02
2.795134e-02
2.355748e-02
1.511498e-02
7.339160e-03
1.842662e-03
5.615218e-05
1.527339e-03
9.296576e-03
1.726313e-02
2.215000e-02
2.418853e-02
1.884058e-02
1.318765e-02
8.659798e-03
2.924134e-03
3.784329e-04
1.673806e-03
8.578728e-03
1.397405e-02
1.824697e-02
2.361029e-02
2.015212e-02
1.811979e-02
9.657277e-03
2.226884e-03
4.655890e-06
3.835678e-03
9.913029e-03
1.332708e-02
2.005716e-02
2.399140e-02
2.078790e-02
1.528608e-02
7.191766e-03
1.060817e-03
2.158983e-05
2.282351e-03
9.308328e-03
1.390822e-02
2.010956e-02
2.425239e-02
1.920269e-02
1.429491e-02
8.766966e-03
1.748040e-03
3.495310e-05
2.567207e-03
8.139793e-03
1.249784e-02
1.793471e-02
2.456170e-02
1.997710e-02
1.718600e-02
1.025110e-02
1.261510e-03
1.866145e-05
2.638401e-03
9.959972e-03
1.490573e-02
1.992980e-02
2.461886e-02
1.769467e-02
1.491658e-02
9.299368e-03
2.826079e-03
4.588510e-04
1.260901e-03
7.563439e-03
1.309517e-02
1.623605e-02
2.184989e-02
1.705133e-02
1.297466e-02
9.204541e-03
1.526374e-03
2.695212e-05
2.601554e-03
8.762815e-03
1.395009e-02
2.100915e-02
2.623242e-02
1.932395e-02
1.697630e-02
9.374950e-03
1.815038e-03
2.466937e-04
9.254570e-04
7.635185e-03
1.457932e-02
2.154409e-02
2.459935e-02
1.676373e-02
1.535598e-02
8.070265e-03
1.245748e-03
1.167911e-04
1.999344e-03
8.096431e-03
1.321181e-02
1.757198e-02
2.538865e-02
2.060678e-02
1.643484e-02
8.814729e-03
1.198152e-03
1.116559e-04
1.234358e-03
7.324683e-03
1.315079e-02
1.961293e-02
2.684642e-02
1.992214e-02
1.686795e-02
9.784095e-03
2.754523e-03
5.639329e-04
6.232577e-04
5.797290e-03
1.132204e-02
1.656971e-02
2.059320e-02
1.547232e-02
1.425951e-02
7.521222e-03
1.924069e-03
8.757528e-05
1.469206e-03
7.597588e-03
1.351579e-02
1.686467e-02
2.412534e-02
2.093282e-02
1.945377e-02
1.306922e-02
4.206015e-03
7.496224e-04
6.496538e-04
5.887042e-03
8.553793e-03
1.559030e-02
2.416432e-02
2.282665e-02
1.667762e-02
1.057552e-02
1.646154e-03
7.390573e-05
6.531218e-04
5.153766e-03
9.452196e-03
1.961119e-02
2.461725e-02
1.986357e-02
1.797924e-02
1.143533e-02
3.530157e-03
9.981667e-04
3.904365e-04
5.137030e-03
9.692919e-03
1.473881e-02
2.233009e-02
1.692779e-02
1.541878e-02
1.025517e-02
1.684754e-03
1.981597e-05
1.718726e-03
9.354560e-03
1.528107e-02
2.049795e-02
2.451760e-02
2.149228e-02
1.857786e-02
1.129607e-02
4.161844e-03
1.067225e-03
2.584073e-04
5.891655e-03
1.109255e-02
1.574612e-02
1.992797e-02
1.517658e-02
1.104743e-02
7.159098e-03
2.147386e-03
4.995623e-05
1.309393e-03
7.108829e-03
1.384539e-02
2.091337e-02
2.713039e-02
2.467451e-02
2.166667e-02
1.191694e-02
3.834910e-03
1.609399e-03
4.488997e-04
4.677333e-03
8.756687e-03
1.439755e-02
1.960105e-02
1.393332e-02
1.375138e-02
8.952192e-03
1.560472e-03
6.015013e-07
2.105172e-03
8.303822e-03
1.158840e-02
1.607235e-02
2.151824e-02
2.333572e-02
2.070716e-02
1.287990e-02
4.466692e-03
9.591477e-04
6.070240e-04
4.128237e-03
8.526669e-03
1.444369e-02
1.846349e-02
1.448676e-02
1.371830e-02
9.090979e-03
2.283745e-03
2.587918e-04
7.763329e-04
6.562449e-03
1.356144e-02
2.055561e-02
2.819033e-02
2.256924e-02
1.847909e-02
1.212620e-02
3.849757e-03
1.171012e-03
8.881476e-05
4.333307e-03
8.889331e-03
1.249076e-02
1.732153e-02
1.237844e-02
1.168299e-02
9.118042e-03
2.326843e-03
9.449615e-05
1.582084e-03
8.250127e-03
1.294532e-02
1.934709e-02
2.819573e-02
2.459294e-02
2.274248e-02
1.533731e-02
6.132212e-03
1.941808e-03
5.979684e-05
2.651490e-03
7.861080e-03
1.131038e-02
1.844095e-02
1.458350e-02
1.106444e-02
8.450378e-03
2.776683e-03
1.940424e-05
1.412651e-03
8.635001e-03
1.658822e-02
2.370693e-02
3.087013e-02
2.467044e-02
2.168404e-02
1.183708e-02
4.025540e-03
1.114347e-03
3.130986e-07
2.626523e-03
6.738856e-03
1.122060e-02
1.618230e-02
1.667342e-02
1.304192e-02
7.797188e-03
2.252702e-03
1.124969e-04
1.530123e-03
7.064666e-03
1.220566e-02
1.654719e-02
2.452980e-02
2.383595e-02
2.048329e-02
1.581378e-02
6.373379e-03
1.182162e-03
3.015731e-07
1.716572e-03
6.224087e-03
1.114010e-02
1.611428e-02
1.707411e-02
1.321436e-02
9.871321e-03
3.181383e-03
1.320052e-04
8.387936e-04
7.181257e-03
1.392637e-02
1.981581e-02
2.487283e-02
2.364557e-02
2.066725e-02
1.389947e-02
5.886082e-03
1.608414e-03
6.676215e-06
2.108366e-03
8.836375e-03
1.352227e-02
1.542984e-02
1.522899e-02
1.067367e-02
7.878614e-03
3.366580e-03
3.908053e-04
3.239560e-04
4.978920e-03
1.275117e-02
1.728797e-02
2.365360e-02
2.751956e-02
2.236298e-02
1.812302e-02
7.037810e-03
1.661104e-03
6.138909e-06
1.635931e-03
6.365754e-03
1.037816e-02
1.595413e-02
1.774619e-02
1.450936e-02
8.016191e-03
2.497244e-03
1.571642e-04
1.043936e-03
6.124044e-03
1.361283e-02
2.051359e-02
2.651834e-02
2.828946e-02
2.225788e-02
1.675314e-02
9.220840e-03
1.347379e-03
4.329347e-05
2.473824e-03
7.431373e-03
1.292143e-02
1.524140e-02
1.550621e-02
1.509881e-02
9.549109e-03
3.603159e-03
7.602913e-04
3.834912e-04
5.536103e-03
1.306602e-02
1.922000e-02
2.417135e-02
2.432632e-02
2.016158e-02
1.533243e-02
7.546702e-03
1.897673e-03
1.972139e-08
2.130449e-03
7.950651e-03
1.287746e-02
1.814250e-02
1.852763e-02
1.468788e-02
1.087035e-02
4.439633e-03
4.746361e-04
1.730945e-04
5.820112e-03
1.225348e-02
1.666260e-02
2.172672e-02
2.266117e-02
1.919170e-02
2.006247e-02
1.107806e-02
3.692150e-03
6.282424e-04
5.865682e-04
4.982867e-03
8.549141e-03
1.590334e-02
1.597350e-02
1.624286e-02
1.211684e-02
3.966562e-03
4.477559e-04
1.599558e-04
3.383788e-03
1.076602e-02
1.636744e-02
2.324804e-02
2.834626e-02
2.372071e-02
1.733451e-02
8.267786e-03
2.492413e-03
6.908668e-04
7.757064e-04
4.551276e-03
1.130270e-02
1.750005e-02
2.139311e-02
1.409622e-02
1.039665e-02
4.412734e-03
2.064122e-04
2.549731e-04
4.069229e-03
1.182563e-02
1.780096e-02
2.141322e-02
2.692016e-02
2.389994e-02
1.865643e-02
1.082095e-02
2.747748e-03
4.112464e-04
1.229903e-03
7.092065e-03
1.108589e-02
1.522482e-02
1.828353e-02
1.324403e-02
8.444022e-03
4.470599e-03
3.012953e-04
1.977043e-04
4.581102e-03
1.265650e-02
1.852982e-02
2.815289e-02
3.528908e-02
2.814690e-02
2.613996e-02
1.594692e-02
4.996312e-03
7.619484e-04
7.980204e-04
6.079761e-03
1.352449e-02
1.909520e-02
1.900927e-02
1.816832e-02
1.314128e-02
4.755412e-03
4.681321e-04
5.076485e-04
4.728624e-03
1.225534e-02
1.822060e-02
2.457423e-02
2.997885e-02
2.504819e-02
1.837560e-02
1.074795e-02
2.309981e-03
4.210589e-04
1.220886e-03
5.778984e-03
1.271070e-02
1.481573e-02
1.963067e-02
1.580493e-02
1.134106e-02
4.896461e-03
2.760139e-04
5.855451e-05
4.117752e-03
1.088223e-02
1.636559e-02
2.319887e-02
3.026251e-02
2.442130e-02
1.759475e-02
1.110253e-02
3.347291e-03
5.648280e-04
5.652860e-04
4.952247e-03
1.051311e-02
1.566461e-02
1.958623e-02
1.524244e-02
1.165859e-02
5.754249e-03
6.798130e-04
1.307780e-04
3.955132e-03
1.310188e-02
1.905749e-02
2.469439e-02
2.910097e-02
2.507733e-02
2.088470e-02
1.340514e-02
3.847806e-03
8.406451e-04
2.975836e-04
5.118159e-03
1.115816e-02
1.398084e-02
1.635849e-02
1.189655e-02
1.074864e-02
4.880074e-03
1.064743e-03
6.044010e-06
3.243444e-03
1.241889e-02
1.919218e-02
2.278236e-02
2.884574e-02
2.545386e-02
1.905745e-02
1.141723e-02
2.842689e-03
6.168501e-04
5.721541e-04
5.261573e-03
9.274752e-03
1.571871e-02
2.257680e-02
1.710207e-02
1.269626e-02
6.061194e-03
1.015228e-03
5.740478e-06
2.929154e-03
9.412562e-03
1.575784e-02
2.666465e-02
3.165367e-02
2.480665e-02
2.013542e-02
1.252128e-02
2.767580e-03
4.411720e-04
5.540668e-04
4.591351e-03
9.166078e-03
1.148182e-02
1.624926e-02
1.248950e-02
1.259791e-02
7.409268e-03
1.339459e-03
1.042375e-06
4.005183e-03
1.121363e-02
1.710993e-02
2.157440e-02
2.853130e-02
2.408062e-02
2.140884e-02
1.328405e-02
3.908479e-03
1.114906e-03
7.701541e-05
3.113393e-03
7.954916e-03
1.390730e-02
2.069692e-02
1.738986e-02
1.265782e-02
7.394723e-03
1.294891e-03
3.940881e-07
3.028919e-03
1.003593e-02
1.954176e-02
2.511355e-02
2.975447e-02
2.549526e-02
2.060751e-02
1.262866e-02
3.837997e-03
4.016577e-04
3.707861e-04
5.449197e-03
8.748260e-03
1.286009e-02
1.866470e-02
1.653112e-02
1.390168e-02
8.115688e-03
1.789680e-03
2.269020e-05
2.022351e-03
9.633291e-03
1.795174e-02
2.260840e-02
2.669689e-02
2.544673e-02
2.223711e-02
1.442785e-02
5.376469e-03
1.671850e-03
6.236183e-05
2.758685e-03
7.604126e-03
1.205777e-02
1.896234e-02
1.560523e-02
1.218686e-02
6.718847e-03
1.076512e-03
1.419528e-05
2.017193e-03
8.938190e-03
1.543061e-02
2.211826e-02
2.716576e-02
2.434772e-02
2.072682e-02
1.463802e-02
5.198482e-03
1.902714e-03
1.531445e-05
4.014606e-03
1.054596e-02
1.337661e-02
1.814748e-02
1.385095e-02
9.757975e-03
8.522797e-03
2.338317e-03
1.411674e-05
2.369846e-03
8.208553e-03
1.584994e-02
2.281663e-02
2.796744e-02
2.436846e-02
2.607166e-02
1.674126e-02
4.786694e-03
1.623744e-03
2.058430e-05
3.490677e-03
6.755366e-03
1.220184e-02
1.901797e-02
1.531238e-02
1.377493e-02
7.747797e-03
1.349561e-03
2.196749e-05
1.769042e-03
7.005022e-03
1.269857e-02
2.105509e-02
2.727200e-02
2.383846e-02
2.126147e-02
1.453921e-02
4.351645e-03
1.590259e-03
2.727292e-05
3.689064e-03
7.867632e-03
1.225805e-02
1.868514e-02
1.323917e-02
1.199500e-02
8.948270e-03
1.205806e-03
1.368674e-04
1.121664e-03
7.991083e-03
1.400620e-02
2.234557e-02
2.865885e-02
2.712286e-02
2.362901e-02
1.577242e-02
6.738782e-03
1.907755e-03
6.219687e-05
3.595737e-03
8.007601e-03
1.309775e-02
1.725410e-02
1.696086e-02
1.156220e-02
6.210207e-03
1.812480e-03
7.012061e-06
1.709010e-03
8.134080e-03
1.549885e-02
2.432616e-02
3.047271e-02
2.640903e-02
2.452662e-02
2.072535e-02
1.104000e-02
3.139123e-03
1.045128e-04
1.948262e-03
7.049999e-03
1.163009e-02
1.604845e-02
1.439016e-02
1.383088e-02
7.990703e-03
1.528878e-03
1.078561e-04
1.365467e-03
9.038097e-03
1.681816e-02
2.301630e-02
3.197488e-02
2.940849e-02
2.459222e-02
2.111182e-02
9.714484e-03
3.216829e-03
3.974133e-06
2.460033e-03
7.727900e-03
1.406568e-02
1.510649e-02
1.263589e-02
1.186995e-02
6.176340e-03
7.547209e-04
2.790492e-05
1.408061e-03
6.987115e-03
1.280495e-02
2.144131e-02
3.009867e-02
2.970233e-02
2.457529e-02
1.465027e-02
6.265132e-03
1.813578e-03
2.360478e-06
1.775885e-03
5.157714e-03
9.785564e-03
1.510504e-02
1.538199e-02
1.327657e-02
9.509302e-03
1.768389e-03
1.719446e-05
1.649320e-03
8.826782e-03
1.517198e-02
1.949113e-02
2.510652e-02
2.742621e-02
2.155635e-02
1.666060e-02
8.386178e-03
2.455829e-03
3.836499e-04
1.229271e-03
5.836275e-03
9.031163e-03
1.469032e-02
1.385197e-02
1.171959e-02
7.345316e-03
2.262852e-03
2.480473e-04
1.324329e-03
9.263366e-03
1.611213e-02
2.208362e-02
2.883268e-02
2.435871e-02
2.107341e-02
1.809012e-02
9.732422e-03
2.532425e-03
2.424014e-04
1.380408e-03
5.401354e-03
1.022733e-02
1.649888e-02
1.761879e-02
1.630863e-02
9.438763e-03
2.681820e-03
1.580084e-04
5.073817e-04
5.015936e-03
1.214955e-02
1.957750e-02
2.853624e-02
2.749348e-02
2.267242e-02
1.773990e-02
1.044357e-02
3.838432e-03
6.003075e-04
7.856415e-04
7.389989e-03
1.188296e-02
1.587418e-02
1.910000e-02
1.486079e-02
1.010980e-02
3.349693e-03
6.702260e-05
1.457125e-03
8.162490e-03
1.261180e-02
1.701161e-02
2.367232e-02
2.897725e-02
2.608578e-02
2.094473e-02
1.050764e-02
2.000725e-03
3.504987e-06
1.921536e-03
7.478260e-03
1.153789e-02
1.547280e-02
1.786739e-02
1.359543e-02
9.696560e-03
4.302977e-03
4.385672e-04
4.970438e-04
4.941781e-03
1.373653e-02
2.288790e-02
2.921516e-02
2.825495e-02
2.343272e-02
1.619472e-02
8.697048e-03
2.591368e-03
4.441305e-04
8.780943e-04
7.618499e-03
1.368731e-02
1.844814e-02
1.933239e-02
1.286618e-02
8.462842e-03
4.505675e-03
5.227040e-05
7.695604e-04
5.955406e-03
1.461402e-02
2.139032e-02
2.555824e-02
2.749063e-02
2.610591e-02
1.935039e-02
8.141553e-03
1.723455e-03
1.091693e-05
2.106337e-03
7.060176e-03
1.280664e-02
1.626677e-02
1.979061e-02
1.372409e-02
1.063075e-02
5.468785e-03
2.003809e-04
4.618099e-04
5.504154e-03
1.456780e-02
1.974184e-02
2.434638e-02
2.804193e-02
2.336904e-02
1.777100e-02
1.079018e-02
3.087415e-03
4.628208e-04
7.355784e-04
5.649715e-03
1.136201e-02
1.712003e-02
1.823412e-02
1.262372e-02
8.403254e-03
5.428235e-03
2.310586e-04
3.325905e-04
3.680771e-03
1.211386e-02
1.683122e-02
2.388936e-02
2.739656e-02
2.534860e-02
2.053609e-02
1.262578e-02
2.584119e-03
3.635015e-04
5.872548e-04
4.821417e-03
7.547421e-03
1.299011e-02
1.477087e-02
1.316429e-02
1.106522e-02
3.325916e-03
1.747053e-04
4.253476e-05
5.418514e-03
1.132269e-02
1.538258e-02
2.490834e-02
2.887326e-02
2.567827e-02
2.202373e-02
1.022735e-02
2.608258e-03
7.523884e-04
7.480052e-04
5.625018e-03
9.033483e-03
1.488447e-02
1.925254e-02
1.429073e-02
9.706183e-03
5.567140e-03
7.795409e-04
8.604323e-06
4.530183e-03
1.310000e-02
2.283046e-02
2.683382e-02
3.296228e-02
2.448970e-02
1.908874e-02
1.142904e-02
4.250347e-03
6.193268e-04
6.807843e-04
6.489010e-03
1.072937e-02
1.427730e-02
2.066173e-02
1.581444e-02
1.286650e-02
6.747683e-03
8.434201e-04
3.063829e-04
4.427782e-03
1.307283e-02
1.849761e-02
2.716450e-02
3.243542e-02
2.434364e-02
2.061865e-02
1.248021e-02
3.763302e-03
1.261558e-03
1.424888e-04
3.756911e-03
7.639346e-03
1.171480e-02
1.782978e-02
1.373690e-02
1.036837e-02
5.491810e-03
5.120209e-04
8.907133e-05
4.312284e-03
1.104086e-02
1.684736e-02
2.223526e-02
2.913785e-02
2.377427e-02
2.170310e-02
1.419313e-02
5.162728e-03
1.058346e-03
2.531087e-04
4.537568e-03
7.262136e-03
1.465552e-02
2.077787e-02
1.520375e-02
1.329563e-02
6.628921e-03
8.723552e-05
6.233153e-04
4.958799e-03
1.212697e-02
1.746379e-02
2.387266e-02
2.906622e-02
2.666295e-02
2.210715e-02
1.458468e-02
4.707583e-03
1.577355e-03
1.026266e-04
3.463333e-03
7.678241e-03
1.373636e-02
1.674501e-02
1.101442e-02
1.029189e-02
4.655126e-03
7.217639e-04
7.112693e-07
2.910464e-03
1.218234e-02
1.998246e-02
2.765519e-02
3.291684e-02
2.616710e-02
2.088124e-02
1.689259e-02
5.182810e-03
1.400392e-03
5.429348e-05
3.618748e-03
8.845177e-03
1.394651e-02
1.746572e-02
1.385584e-02
1.029061e-02
4.117111e-03
6.039359e-04
2.172870e-05
3.009469e-03
1.325712e-02
1.872809e-02
2.938054e-02
3.409646e-02
2.671805e-02
2.471380e-02
1.644411e-02
5.069042e-03
1.025992e-03
9.575272e-05
3.808144e-03
7.697338e-03
1.169697e-02
1.575626e-02
1.363477e-02
1.035325e-02
5.289301e-03
9.150162e-04
1.121006e-07
2.802300e-03
1.315173e-02
2.063539e-02
2.779178e-02
3.372599e-02
2.646169e-02
2.473308e-02
1.612490e-02
6.616432e-03
2.506705e-03
1.349764e-05
2.018837e-03
4.106554e-03
9.777318e-03
1.680999e-02
1.182253e-02
8.634686e-03
5.459778e-03
1.323526e-04
3.494710e-04
3.340024e-03
1.200713e-02
2.108183e-02
2.355354e-02
3.355167e-02
2.915649e-02
2.672277e-02
2.377049e-02
9.111468e-03
2.540513e-03
7.212591e-05
2.840560e-03
6.206777e-03
1.028136e-02
1.651157e-02
1.292644e-02
1.167984e-02
6.418723e-03
4.359706e-04
3.191091e-04
4.401512e-03
1.366227e-02
1.932361e-02
2.675536e-02
3.326796e-02
2.870585e-02
2.953970e-02
1.929402e-02
5.910942e-03
3.415293e-03
5.484721e-04
7.775176e-04
4.079630e-03
9.694155e-03
1.479892e-02
1.198132e-02
7.499077e-03
4.026483e-03
7.511650e-04
1.815218e-05
2.117816e-03
1.262794e-02
2.222287e-02
2.817207e-02
3.385520e-02
2.846811e-02
2.943611e-02
2.322755e-02
1.014263e-02
3.677338e-03
1.753044e-04
2.117703e-03
4.143235e-03
6.401203e-03
1.018183e-02
7.813449e-03
8.042603e-03
3.858437e-03
3.850868e-04
2.835397e-04
3.541248e-03
1.198054e-02
1.958952e-02
2.965365e-02
4.095338e-02
3.469393e-02
2.830003e-02
1.860448e-02
7.160098e-03
3.510982e-03
2.145161e-04
1.160351e-03
4.577911e-03
9.230927e-03
1.337962e-02
9.374622e-03
9.062610e-03
4.687932e-03
3.729303e-04
2.910334e-04
4.010696e-03
1.224122e-02
2.262771e-02
3.095519e-02
3.518428e-02
3.381580e-02
2.918475e-02
2.052778e-02
9.631495e-03
5.847535e-03
9.083303e-04
8.380972e-04
3.419261e-03
7.626829e-03
1.003996e-02
1.065176e-02
1.044566e-02
6.331357e-03
1.157075e-03
2.539232e-04
6.830746e-03
1.849314e-02
2.647935e-02
3.021576e-02
3.773876e-02
3.304219e-02
3.298761e-02
2.505313e-02
1.133380e-02
4.586116e-03
1.091233e-03
5.143940e-04
2.271583e-03
4.952675e-03
1.063103e-02
1.052100e-02
8.418833e-03
3.744042e-03
2.070194e-04
6.086719e-04
4.056369e-03
1.335227e-02
2.070583e-02
3.068432e-02
4.021791e-02
3.645831e-02
3.099809e-02
2.458307e-02
1.412049e-02
6.772257e-03
2.127419e-03
3.047293e-04
3.317317e-03
6.597962e-03
9.881389e-03
1.080737e-02
6.957092e-03
3.759840e-03
4.044021e-04
1.010233e-03
4.275564e-03
1.307627e-02
2.228869e-02
2.936565e-02
3.662120e-02
3.891564e-02
3.476532e-02
2.606454e-02
1.591863e-02
9.661891e-03
2.263525e-03
7.911888e-05
2.405201e-03
5.777156e-03
9.075010e-03
8.989363e-03
6.544163e-03
3.218450e-03
3.494616e-04
2.843404e-04
3.415223e-03
1.124467e-02
1.767248e-02
2.947943e-02
4.107792e-02
4.177848e-02
3.606118e-02
2.823719e-02
1.541463e-02
7.273839e-03
2.200777e-03
3.372488e-06
1.419655e-03
3.268968e-03
6.155774e-03
6.662510e-03
4.089346e-03
2.391134e-03
1.507045e-04
1.786343e-03
6.880139e-03
1.678678e-02
2.666663e-02
3.384746e-02
4.102819e-02
3.984462e-02
4.457919e-02
3.216526e-02
2.180661e-02
8.723347e-03
2.230336e-03
1.082073e-04
1.796930e-03
2.957666e-03
4.762155e-03
6.271843e-03
3.920391e-03
1.721141e-03
2.873885e-04
1.023339e-03
4.778435e-03
1.364737e-02
2.557539e-02
3.630897e-02
4.526919e-02
4.829410e-02
4.005054e-02
3.227627e-02
2.303631e-02
1.068119e-02
4.584359e-03
3.326503e-04
5.688835e-04
3.190617e-03
6.654732e-03
8.570322e-03
4.421891e-03
2.011495e-03
4.049737e-05
1.847608e-03
5.609524e-03
1.305419e-02
2.662395e-02
3.808447e-02
4.504767e-02
5.072911e-02
4.303692e-02
3.498358e-02
2.166971e-02
1.024604e-02
4.534061e-03
4.301826e-04
3.012990e-04
2.491845e-03
3.973494e-03
5.515186e-03
4.082772e-03
2.312141e-03
2.725390e-04
7.476136e-04
4.854745e-03
1.895200e-02
3.248014e-02
4.066222e-02
4.418355e-02
4.772551e-02
4.260693e-02
3.581305e-02
2.309812e-02
1.128471e-02
5.188570e-03
3.931182e-04
1.905267e-04
1.728935e-03
3.791189e-03
5.380968e-03
2.822850e-03
1.210418e-03
2.094717e-05
1.494529e-03
4.948108e-03
1.388739e-02
2.723335e-02
3.867059e-02
5.000845e-02
5.596838e-02
4.808638e-02
3.893586e-02
2.884923e-02
1.556598e-02
6.424244e-03
8.313538e-04
1.006806e-04
1.851674e-03
3.140401e-03
4.669402e-03
3.927737e-03
2.399218e-03
1.068730e-04
1.477911e-03
4.875180e-03
1.416810e-02
2.850926e-02
4.547968e-02
4.903355e-02
5.431679e-02
5.020954e-02
3.817226e-02
2.617821e-02
1.538155e-02
7.632891e-03
1.044176e-03
3.516986e-04
9.476938e-04
2.610742e-03
4.845317e-03
2.139028e-03
1.094492e-03
6.984316e-05
2.286878e-03
6.668907e-03
1.882594e-02
3.169041e-02
4.116910e-02
5.007213e-02
6.116842e-02
5.430363e-02
4.514600e-02
3.104956e-02
1.288715e-02
6.404798e-03
2.012323e-03
2.688688e-06
3.328836e-04
2.193629e-03
4.242372e-03
2.575218e-03
1.428016e-03
5.361322e-06
2.253093e-03
7.561345e-03
1.980134e-02
3.485268e-02
4.183654e-02
5.665720e-02
6.045011e-02
4.848856e-02
4.522887e-02
3.739667e-02
2.131802e-02
1.419529e-02
4.432937e-03
1.560154e-04
5.054412e-04
2.540682e-03
4.175371e-03
2.546496e-03
1.243929e-03
1.721859e-04
2.031456e-03
7.425167e-03
1.858841e-02
3.133237e-02
4.229965e-02
5.210163e-02
5.643971e-02
5.330876e-02
4.905626e-02
3.650836e-02
1.815495e-02
1.173113e-02
3.172131e-03
4.277533e-05
1.652034e-04
2.155820e-03
4.032826e-03
2.177930e-03
1.356760e-03
3.229834e-05
2.440764e-03
6.388487e-03
1.848158e-02
3.380904e-02
4.442375e-02
5.313731e-02
6.042670e-02
5.233989e-02
5.156949e-02
4.063012e-02
2.133139e-02
1.241492e-02
3.670192e-03
1.789326e-05
2.935630e-04
2.245106e-03
4.958655e-03
2.668764e-03
8.883903e-04
2.187190e-07
4.862910e-03
8.688859e-03
1.738784e-02
3.037221e-02
4.433667e-02
5.583284e-02
6.532481e-02
6.289165e-02
5.333072e-02
3.685484e-02
2.065539e-02
1.278306e-02
3.272937e-03
3.075799e-04
1.110611e-04
7.991509e-04
2.465114e-03
5.384586e-04
1.308187e-04
7.863009e-05
2.745849e-03
5.755071e-03
1.499872e-02
3.247065e-02
4.673844e-02
5.428540e-02
6.488153e-02
5.392849e-02
5.128790e-02
4.234544e-02
2.538233e-02
1.526408e-02
5.022863e-03
1.524622e-04
1.395707e-04
1.549326e-03
3.832640e-03
2.129472e-03
1.014171e-03
1.917725e-05
2.464960e-03
6.435214e-03
1.522636e-02
3.405423e-02
4.236902e-02
5.430290e-02
6.774373e-02
6.053079e-02
5.511262e-02
4.218145e-02
1.993404e-02
1.223228e-02
3.047904e-03
4.060612e-05
1.482028e-04
9.868004e-04
3.753346e-03
2.253917e-03
2.041106e-03
2.225106e-04
7.793862e-04
4.637890e-03
1.465248e-02
3.226105e-02
4.301919e-02
5.474157e-02
6.691135e-02
5.548708e-02
5.066331e-02
4.009546e-02
2.404809e-02
1.501658e-02
5.000874e-03
7.263561e-04
4.682684e-05
6.163731e-04
1.922153e-03
6.843153e-04
1.053339e-03
1.455015e-04
2.085358e-03
7.861685e-03
2.182056e-02
3.727990e-02
4.501315e-02
5.528244e-02
7.314299e-02
6.052599e-02
6.051042e-02
4.519845e-02
2.230497e-02
1.687876e-02
9.732142e-03
1.325612e-03
1.372180e-05
9.708596e-04
2.254169e-03
6.105257e-04
1.186082e-05
8.695733e-05
3.343588e-03
6.513472e-03
1.886597e-02
3.065951e-02
4.682957e-02
5.978686e-02
6.923767e-02
6.269065e-02
6.232315e-02
4.807784e-02
2.936053e-02
1.926040e-02
9.820512e-03
1.847596e-03
1.133972e-04
6.023090e-04
2.146169e-03
9.280548e-04
3.953742e-04
4.896993e-05
3.994872e-03
8.900353e-03
1.870076e-02
3.707481e-02
4.726829e-02
6.063393e-02
6.848521e-02
6.370166e-02
6.400524e-02
5.586405e-02
3.214339e-02
2.116531e-02
7.419512e-03
6.954430e-04
8.162796e-05
4.136107e-05
3.308554e-04
7.489631e-05
2.218049e-04
1.516176e-08
2.781752e-03
6.088096e-03
1.800015e-02
3.325690e-02
4.886663e-02
6.204413e-02
6.869726e-02
6.765912e-02
6.197231e-02
5.089920e-02
3.107225e-02
2.191294e-02
1.132382e-02
2.302367e-03
3.809913e-04
2.639579e-05
9.451623e-04
5.380577e-04
2.728626e-05
2.761424e-04
4.128172e-03
9.121837e-03
1.921806e-02
3.487568e-02
5.050016e-02
6.594252e-02
8.224827e-02
7.206216e-02
6.583926e-02
5.679918e-02
3.610740e-02
2.215594e-02
1.151134e-02
3.606165e-03
3.971537e-04
5.262741e-05
2.868095e-04
2.709951e-04
1.394522e-04
2.076149e-04
3.183816e-03
1.198747e-02
2.561603e-02
4.136141e-02
5.732719e-02
6.658933e-02
8.065882e-02
7.994147e-02
7.743639e-02
7.028259e-02
5.097301e-02
2.932315e-02
1.417194e-02
3.732254e-03
8.849530e-05
1.146982e-04
5.158208e-04
3.295578e-04
1.025289e-04
2.832398e-04
3.420267e-03
1.066350e-02
1.956037e-02
3.530244e-02
5.079748e-02
6.426492e-02
7.715055e-02
7.643919e-02
7.201347e-02
5.241836e-02
3.242769e-02
2.613544e-02
1.411051e-02
4.408759e-03
1.236914e-03
5.921043e-05
1.399871e-03
8.853331e-04
2.446531e-04
5.797395e-04
3.667032e-03
8.545140e-03
1.984770e-02
3.404606e-02
5.054573e-02
6.400546e-02
7.658581e-02
7.777269e-02
7.090753e-02
5.921193e-02
4.179931e-02
2.429328e-02
1.266906e-02
4.810298e-03
1.855369e-03
1.388604e-04
4.917310e-05
6.573666e-05
1.076751e-07
2.781184e-04
3.655446e-03
9.534000e-03
2.199537e-02
4.122576e-02
5.693990e-02
6.772845e-02
7.507609e-02
7.572547e-02
6.904171e-02
6.640517e-02
4.608065e-02
2.928385e-02
2.044226e-02
8.880900e-03
3.615668e-03
1.706258e-03
1.200163e-05
9.269875e-07
1.909974e-05
2.499435e-04
4.506609e-03
1.129865e-02
1.911400e-02
3.934326e-02
5.499556e-02
6.535394e-02
7.841345e-02
8.108372e-02
7.542639e-02
6.290265e-02
4.653067e-02
2.882770e-02
1.481522e-02
6.301060e-03
1.312045e-03
1.871365e-07
1.330139e-04
1.568689e-04
6.500132e-05
7.778006e-04
4.397896e-03
1.160645e-02
1.997530e-02
3.819084e-02
5.614725e-02
6.781425e-02
7.678089e-02
8.194730e-02
7.441288e-02
6.454407e-02
4.872932e-02
3.088940e-02
1.974242e-02
9.050163e-03
2.581417e-03
5.966045e-04
1.562861e-06
6.941223e-05
1.359439e-04
1.077243e-03
3.573915e-03
1.026229e-02
2.028150e-02
3.642970e-02
5.348161e-02
7.664812e-02
8.145801e-02
8.964851e-02
7.741592e-02
6.454153e-02
5.128419e-02
3.286712e-02
2.002582e-02
7.994012e-03
2.104492e-03
5.953390e-04
1.095714e-04
2.085644e-04
9.355408e-04
1.704333e-03
6.178249e-03
1.561262e-02
2.586851e-02
4.302003e-02
5.764819e-02
6.268723e-02
6.945320e-02
8.911537e-02
7.707652e-02
6.920626e-02
5.301706e-02
3.204365e-02
2.131482e-02
1.063351e-02
4.310061e-03
1.705584e-03
1.107472e-04
6.852999e-05
2.665796e-04
1.691935e-03
4.224538e-03
1.412820e-02
2.502224e-02
4.037529e-02
6.091595e-02
8.049989e-02
8.454048e-02
8.683518e-02
7.819656e-02
7.110383e-02
5.904455e-02
3.599483e-02
2.862180e-02
1.356324e-02
3.220747e-03
1.211222e-03
1.267111e-04
2.528832e-06
2.796965e-04
1.142844e-03
2.575583e-03
9.700667e-03
1.551988e-02
3.060911e-02
5.405715e-02
6.679599e-02
7.362385e-02
8.067568e-02
8.152856e-02
7.421427e-02
5.399098e-02
3.317491e-02
1.771015e-02
7.855728e-03
2.381214e-03
1.240368e-03
9.607976e-05
2.757950e-04
4.777242e-05
1.206829e-04
2.065338e-03
1.051524e-02
1.793637e-02
3.387555e-02
5.317872e-02
6.920997e-02
8.004776e-02
9.788219e-02
8.186373e-02
6.920734e-02
5.648612e-02
3.248114e-02
2.342997e-02
1.030760e-02
2.486821e-03
9.375206e-04
2.641973e-05
1.204802e-04
1.894631e-04
5.186502e-04
1.909882e-03
9.239371e-03
1.826842e-02
3.375815e-02
5.862490e-02
7.393730e-02
8.798729e-02
9.649325e-02
7.999966e-02
7.892630e-02
6.399283e-02
3.855274e-02
2.534731e-02
1.499485e-02
3.674017e-03
1.487223e-03
6.197378e-04
9.886829e-07
1.180577e-04
3.714883e-04
2.134953e-03
1.118374e-02
1.813512e-02
3.828165e-02
6.015900e-02
7.233038e-02
8.748886e-02
9.722172e-02
8.064395e-02
7.518258e-02
6.222662e-02
3.527095e-02
2.485386e-02
1.473526e-02
4.480104e-03
1.900811e-03
1.706530e-04
1.376149e-04
2.045374e-05
2.335336e-05
2.789083e-03
1.088468e-02
1.610394e-02
2.932298e-02
4.782808e-02
5.733748e-02
7.406873e-02
9.264243e-02
7.490768e-02
6.786254e-02
5.695405e-02
3.631245e-02
2.450209e-02
1.084730e-02
1.852314e-03
1.584955e-04
1.025748e-05
2.116647e-04
3.814350e-05
2.555134e-04
1.227122e-03
7.027386e-03
1.506863e-02
3.059164e-02
5.377276e-02
6.456476e-02
7.426587e-02
8.923709e-02
7.722398e-02
6.948419e-02
6.185680e-02
3.681156e-02
2.491390e-02
1.372633e-02
3.368004e-03
3.191387e-04
2.934849e-05
8.644533e-04
1.792781e-04
2.217770e-05
2.116203e-03
9.997272e-03
1.599301e-02
2.979713e-02
4.482563e-02
5.745069e-02
7.645018e-02
8.845149e-02
8.697909e-02
7.765857e-02
6.171111e-02
4.147237e-02
2.488251e-02
1.084929e-02
2.388450e-03
6.684220e-04
1.428098e-04
2.438799e-05
2.957421e-04
1.094953e-04
8.065415e-04
8.180800e-03
1.548685e-02
3.164547e-02
5.541933e-02
6.879319e-02
7.729830e-02
9.242363e-02
8.374848e-02
8.104084e-02
6.394368e-02
4.406759e-02
2.462524e-02
1.180398e-02
2.263575e-03
4.834811e-04
2.703052e-06
3.745702e-04
4.301822e-06
1.389575e-04
1.441924e-03
7.823137e-03
1.313338e-02
2.357714e-02
3.974092e-02
5.560346e-02
7.140362e-02
8.519979e-02
7.684731e-02
7.186718e-02
5.570074e-02
3.635059e-02
2.536921e-02
1.402705e-02
4.899770e-03
1.383500e-03
2.660169e-04
7.278690e-05
3.512260e-07
1.466092e-05
9.680020e-04
5.279237e-03
1.225751e-02
2.381215e-02
4.489602e-02
5.820140e-02
7.772360e-02
8.976106e-02
8.227183e-02
7.697529e-02
6.167343e-02
4.120539e-02
2.503542e-02
1.255528e-02
4.725416e-03
8.838710e-04
5.440591e-05
7.036379e-05
2.178603e-07
3.528846e-05
1.476215e-03
7.636228e-03
1.491495e-02
2.901415e-02
4.924621e-02
6.395893e-02
7.803641e-02
9.042966e-02
7.949658e-02
7.354373e-02
6.483094e-02
4.582803e-02
3.071362e-02
1.789811e-02
5.868585e-03
1.576574e-03
4.565512e-04
3.021810e-05
2.984810e-04
6.430453e-04
3.148366e-03
8.569853e-03
1.501083e-02
2.860812e-02
4.625690e-02
5.782850e-02
7.550772e-02
9.073135e-02
8.507281e-02
8.161393e-02
6.920402e-02
4.682506e-02
2.642171e-02
1.313779e-02
4.495618e-03
1.270173e-03
2.037470e-04
5.952521e-05
2.202218e-04
1.043091e-05
7.960353e-04
5.504638e-03
1.345876e-02
2.330807e-02
3.923905e-02
4.964186e-02
6.715400e-02
7.889508e-02
7.276461e-02
7.136625e-02
5.982039e-02
4.091620e-02
2.835044e-02
1.555226e-02
4.222699e-03
8.364803e-04
2.533260e-04
1.393143e-05
7.237932e-05
3.218680e-04
1.427527e-03
4.498427e-03
1.340672e-02
2.309512e-02
4.412635e-02
6.215395e-02
7.490626e-02
8.771081e-02
8.674485e-02
7.642416e-02
6.147853e-02
4.273213e-02
3.075213e-02
1.971564e-02
7.031420e-03
2.654186e-03
3.072519e-04
2.782661e-07
1.435566e-04
1.041789e-04
2.952111e-04
4.108718e-03
1.139878e-02
2.445154e-02
4.334968e-02
5.774990e-02
6.644446e-02
8.023075e-02
8.000024e-02
7.641846e-02
6.513638e-02
4.358277e-02
2.877331e-02
1.406330e-02
3.686551e-03
1.958397e-03
4.784034e-04
8.415773e-06
2.687726e-05
3.836608e-05
5.753476e-04
4.528612e-03
1.283784e-02
2.644268e-02
4.897984e-02
6.547768e-02
7.904913e-02
8.173054e-02
8.965821e-02
8.082012e-02
6.876192e-02
5.223992e-02
3.574340e-02
2.045109e-02
8.258014e-03
3.218604e-03
3.654576e-04
8.894815e-05
1.270894e-04
2.824260e-05
1.088998e-03
4.960784e-03
1.227427e-02
2.430389e-02
3.851569e-02
5.847146e-02
7.214374e-02
8.396641e-02
8.404803e-02
7.346088e-02
6.044385e-02
4.441166e-02
2.934480e-02
1.924006e-02
8.531528e-03
1.628896e-03
4.261188e-04
1.325684e-07
1.232569e-04
1.037308e-06
2.004225e-04
2.499788e-03
9.430327e-03
2.106239e-02
3.793463e-02
5.162501e-02
6.770457e-02
7.588352e-02
8.034509e-02
7.397355e-02
6.125250e-02
4.618743e-02
2.685827e-02
1.641009e-02
7.010899e-03
1.961520e-03
3.662741e-04
2.875793e-05
2.374236e-04
1.289171e-04
5.555174e-04
5.278872e-03
1.566892e-02
2.263689e-02
3.938693e-02
5.300030e-02
5.988527e-02
7.936131e-02
8.652902e-02
6.981010e-02
6.713445e-02
5.210591e-02
3.348544e-02
2.163742e-02
8.150494e-03
2.594421e-03
4.248314e-04
2.533885e-04
2.937144e-05
3.336233e-05
1.341231e-03
4.405172e-03
1.287836e-02
2.353799e-02
4.501281e-02
6.279999e-02
6.438126e-02
7.665876e-02
8.584349e-02
7.202548e-02
6.458210e-02
5.192992e-02
3.601532e-02
2.176635e-02
8.426844e-03
3.213677e-03
3.763105e-04
9.523118e-05
2.154921e-04
5.291243e-05
6.315004e-04
2.433038e-03
1.122899e-02
1.877661e-02
3.340989e-02
5.137786e-02
6.356013e-02
7.784242e-02
8.541851e-02
7.970832e-02
6.797449e-02
4.898503e-02
2.748139e-02
1.493997e-02
6.637902e-03
7.914332e-04
5.610482e-05
1.333968e-04
3.624078e-04
2.281293e-06
2.136379e-04
2.092983e-03
7.704530e-03
1.350883e-02
2.810456e-02
4.490775e-02
5.782140e-02
6.867392e-02
7.383796e-02
6.809670e-02
6.029234e-02
4.326563e-02
2.681370e-02
1.400235e-02
5.415473e-03
6.816498e-04
1.388575e-04
2.284337e-04
1.465446e-03
1.434849e-04
2.591023e-05
8.721419e-04
7.017565e-03
1.020361e-02
2.425515e-02
4.509716e-02
5.786140e-02
7.337408e-02
7.655225e-02
6.368209e-02
5.710805e-02
4.093372e-02
2.797735e-02
1.495850e-02
5.087163e-03
1.043353e-03
6.388766e-05
2.783183e-05
1.116718e-03
2.280411e-04
5.139320e-07
6.781311e-04
5.585512e-03
1.199925e-02
2.808822e-02
4.138951e-02
5.625919e-02
6.621379e-02
7.023957e-02
5.888228e-02
5.180974e-02
4.009716e-02
2.171241e-02
1.286987e-02
5.231255e-03
8.986528e-04
1.548855e-06
7.332804e-04
2.838847e-03
7.022044e-04
2.981361e-04
5.250069e-04
4.038332e-03
7.523452e-03
1.881297e-02
3.682592e-02
4.640172e-02
5.624011e-02
6.374489e-02
5.661154e-02
4.723793e-02
3.803350e-02
2.020331e-02
1.073913e-02
3.560767e-03
4.328618e-04
3.241013e-05
8.324671e-04
2.247323e-03
1.004978e-03
8.527795e-04
1.594079e-04
3.468195e-03
6.641387e-03
1.749216e-02
3.306794e-02
4.327974e-02
4.982370e-02
5.900073e-02
5.342151e-02
4.934746e-02
4.025337e-02
2.300102e-02
1.386302e-02
3.939456e-03
1.522317e-04
1.784329e-04
7.764579e-04
2.944623e-03
1.024793e-03
4.359326e-04
1.500376e-05
4.098835e-03
8.345296e-03
1.967161e-02
3.234536e-02
4.402597e-02
5.322461e-02
6.089411e-02
5.198282e-02
4.731869e-02
3.493303e-02
1.972586e-02
1.267907e-02
4.953012e-03
2.759021e-04
7.822395e-07
3.004879e-04
2.097394e-03
4.178309e-04
6.539926e-04
7.930570e-05
2.554173e-03
9.511394e-03
2.129887e-02
3.417444e-02
4.305441e-02
5.133539e-02
6.334008e-02
6.043203e-02
5.469963e-02
4.175251e-02
2.299773e-02
1.521834e-02
7.372089e-03
8.700524e-04
3.701337e-05
1.072528e-03
2.311511e-03
6.258807e-04
1.706312e-04
3.374807e-04
4.368942e-03
8.117439e-03
1.914629e-02
3.340229e-02
4.943013e-02
5.653770e-02
6.038424e-02
5.472789e-02
5.113674e-02
4.052392e-02
2.543819e-02
1.749402e-02
6.955901e-03
8.166204e-04
9.547645e-05
1.286702e-04
1.425219e-03
7.042039e-04
1.045847e-04
5.593369e-04
6.825367e-03
1.022768e-02
2.197043e-02
4.006747e-02
5.457248e-02
6.845130e-02
7.511877e-02
5.761760e-02
5.048286e-02
4.805754e-02
2.961501e-02
2.049482e-02
9.900413e-03
8.232503e-04
1.185132e-04
2.541271e-06
3.826821e-04
9.151820e-05
2.583695e-06
6.293522e-04
7.468785e-03
1.125018e-02
2.319368e-02
3.854897e-02
4.674627e-02
6.191691e-02
7.451065e-02
6.962719e-02
6.335593e-02
5.172172e-02
3.136215e-02
2.225258e-02
8.553816e-03
2.967185e-03
1.794761e-03
2.095436e-05
1.370722e-04
4.714334e-06
2.021985e-04
9.675414e-04
6.509570e-03
1.166940e-02
2.069663e-02
3.880006e-02
5.110713e-02
5.968513e-02
7.121927e-02
6.695151e-02
6.144054e-02
5.051033e-02
3.594698e-02
2.306881e-02
1.251656e-02
3.907452e-03
1.584407e-03
2.016634e-04
4.944855e-05
3.543224e-05
6.032781e-04
5.933786e-04
3.028045e-03
8.815912e-03
1.819452e-02
3.512493e-02
4.847300e-02
6.223450e-02
6.699407e-02
6.570691e-02
6.420290e-02
5.212865e-02
3.326731e-02
2.292147e-02
1.036372e-02
3.112287e-03
5.404870e-04
2.742869e-06
5.723846e-04
1.998874e-04
8.004023e-05
7.513985e-05
2.903022e-03
8.811614e-03
2.021251e-02
3.828825e-02
4.772207e-02
5.507179e-02
6.268558e-02
6.499053e-02
5.916515e-02
4.523456e-02
2.745785e-02
1.662954e-02
7.717958e-03
2.605554e-03
5.566936e-04
1.097888e-04
1.458193e-03
9.238051e-04
3.551863e-04
3.331089e-04
4.455591e-03
8.629222e-03
1.874933e-02
3.474539e-02
4.401249e-02
5.726007e-02
6.603705e-02
6.009274e-02
5.276592e-02
4.026834e-02
2.785129e-02
1.633123e-02
7.512843e-03
1.945463e-03
3.035556e-05
1.251333e-04
8.408587e-04
8.849215e-04
5.043466e-04
3.579799e-06
1.674848e-03
7.802798e-03
1.774795e-02
3.568944e-02
4.637581e-02
5.501725e-02
7.197812e-02
6.781346e-02
6.658551e-02
5.702798e-02
3.832068e-02
2.302274e-02
1.125499e-02
2.531110e-03
4.015764e-04
2.636283e-05
5.090752e-04
1.801190e-04
5.248099e-06
2.156368e-04
2.649307e-03
1.298600e-02
1.953069e-02
3.312122e-02
5.135764e-02
5.856470e-02
6.938399e-02
6.828540e-02
6.478686e-02
5.320749e-02
3.284916e-02
2.387313e-02
1.521598e-02
5.023964e-03
1.076309e-03
8.412893e-05
2.957002e-04
2.932130e-04
9.428569e-05
1.714955e-04
1.990850e-03
7.313966e-03
1.592315e-02
3.364342e-02
4.567675e-02
6.029113e-02
7.236092e-02
7.268894e-02
6.873789e-02
5.682559e-02
3.740976e-02
2.155344e-02
1.258899e-02
3.395438e-03
4.738278e-04
2.819584e-06
4.996679e-04
3.870153e-04
2.797338e-05
5.338663e-04
2.127320e-03
6.673107e-03
1.710985e-02
3.211056e-02
4.765370e-02
5.856000e-02
6.875906e-02
6.884936e-02
6.920610e-02
5.720893e-02
4.290180e-02
2.241771e-02
1.106873e-02
4.356365e-03
1.202386e-03
6.328002e-05
6.854517e-05
3.227642e-04
9.500227e-05
1.562462e-04
2.754281e-03
6.087276e-03
1.406150e-02
3.133172e-02
4.597279e-02
6.088547e-02
7.859686e-02
7.363085e-02
6.252909e-02
5.694440e-02
4.453567e-02
2.345886e-02
1.347254e-02
5.807547e-03
6.046675e-04
6.762033e-05
1.297473e-05
7.563174e-05
9.210135e-05
2.229445e-05
1.378662e-03
6.115357e-03
1.476535e-02
2.760877e-02
4.664210e-02
5.602963e-02
6.568796e-02
7.536735e-02
6.606873e-02
5.315332e-02
3.925230e-02
2.533486e-02
1.378493e-02
5.357407e-03
5.096393e-04
7.879253e-06
1.739948e-04
3.202165e-04
2.152057e-05
7.815223e-04
3.142811e-03
8.832135e-03
1.629909e-02
2.634804e-02
4.143394e-02
5.719620e-02
6.153532e-02
7.167184e-02
5.919969e-02
5.255605e-02
3.865150e-02
2.548123e-02
1.570242e-02
5.137762e-03
8.647403e-04
4.464214e-06
1.431178e-04
8.399700e-04
5.642290e-04
2.485690e-05
1.913866e-03
8.607896e-03
1.740555e-02
2.951395e-02
4.236573e-02
5.553181e-02
6.383710e-02
7.279455e-02
6.862067e-02
5.317474e-02
3.810738e-02
2.516942e-02
1.598037e-02
5.251558e-03
9.537949e-04
1.398086e-05
1.404112e-04
6.794225e-04
2.791649e-04
3.127156e-05
5.450927e-04
5.382161e-03
1.367413e-02
2.678546e-02
3.879615e-02
5.385824e-02
6.154563e-02
7.393810e-02
6.803424e-02
5.624083e-02
4.360114e-02
2.442374e-02
1.609503e-02
6.395621e-03
8.788820e-04
6.610391e-06
4.888910e-04
8.253164e-04
3.334372e-04
4.411842e-06
1.196751e-03
6.912763e-03
1.296891e-02
2.585170e-02
4.297549e-02
5.397469e-02
6.255627e-02
6.509863e-02
5.783361e-02
5.314400e-02
4.116083e-02
2.418744e-02
1.585703e-02
5.504585e-03
1.043597e-03
6.082513e-04
8.470973e-05
4.008409e-04
5.361078e-05
5.205246e-06
1.048653e-03
8.426323e-03
1.281952e-02
2.542982e-02
3.688234e-02
4.422643e-02
5.750125e-02
7.145044e-02
6.323621e-02
5.780364e-02
4.875174e-02
2.556090e-02
1.554613e-02
7.553483e-03
1.478239e-03
4.511406e-07
1.268883e-04
8.480825e-04
3.340539e-04
1.608707e-05
1.747005e-04
3.668402e-03
9.407166e-03
2.074098e-02
3.763706e-02
5.255430e-02
6.236142e-02
6.512695e-02
6.010597e-02
4.893043e-02
3.744425e-02
2.372994e-02
1.674263e-02
6.295592e-03
9.250306e-04
1.784118e-04
2.659286e-04
1.442842e-03
1.038231e-04
3.221470e-05
4.734785e-04
5.023436e-03
9.248624e-03
2.060573e-02
3.502648e-02
4.634847e-02
5.742345e-02
5.934782e-02
5.173801e-02
4.783519e-02
3.469581e-02
2.205794e-02
1.573755e-02
7.077915e-03
2.380442e-03
4.517617e-04
2.890477e-05
3.931304e-04
3.708251e-04
6.763054e-06
4.246327e-04
3.899519e-03
1.047349e-02
2.374316e-02
4.159482e-02
5.080016e-02
5.885030e-02
6.048304e-02
5.160662e-02
4.758268e-02
4.098080e-02
2.492292e-02
1.602207e-02
7.312284e-03
1.545808e-03
2.226072e-05
2.556534e-04
1.665757e-03
8.045561e-04
1.008581e-05
8.585899e-04
5.173663e-03
1.072828e-02
1.958949e-02
3.120247e-02
4.353904e-02
5.120753e-02
6.116991e-02
5.626046e-02
5.483459e-02
4.318760e-02
2.559113e-02
1.490292e-02
4.845486e-03
7.879630e-04
5.652901e-05
1.070740e-04
5.741639e-04
8.735307e-05
3.243102e-05
4.205672e-04
6.798628e-03
1.137633e-02
2.041806e-02
4.087152e-02
4.286547e-02
4.641076e-02
6.023058e-02
6.115614e-02
5.457457e-02
4.935051e-02
3.176231e-02
2.307539e-02
8.288735e-03
6.971454e-04
4.548474e-06
2.769324e-04
1.917668e-03
3.331415e-04
2.680396e-06
4.642688e-04
3.604811e-03
9.544566e-03
1.747813e-02
3.015457e-02
3.895772e-02
5.075664e-02
6.419751e-02
5.755792e-02
5.330186e-02
4.010896e-02
2.430950e-02
1.704077e-02
5.974496e-03
7.031893e-04
3.279931e-04
3.274609e-04
1.360009e-03
6.495668e-05
7.138994e-05
1.683553e-04
4.116985e-03
9.032013e-03
1.530462e-02
2.844763e-02
4.054483e-02
5.346732e-02
6.234982e-02
5.960274e-02
5.639489e-02
4.111730e-02
2.599092e-02
1.801742e-02
7.532366e-03
1.764667e-03
1.819025e-04
2.542975e-04
1.082533e-03
3.073006e-04
1.485835e-04
1.496799e-04
4.265094e-03
9.874300e-03
1.836244e-02
3.320359e-02
4.258497e-02
4.818383e-02
6.830934e-02
6.904261e-02
5.075492e-02
4.128117e-02
2.256841e-02
1.276655e-02
5.960129e-03
1.159783e-03
3.293130e-06
5.830940e-04
1.050925e-03
2.891123e-04
1.642893e-04
1.619200e-06
1.177633e-03
5.469961e-03
1.564781e-02
3.504955e-02
4.383399e-02
5.455981e-02
5.847733e-02
5.568173e-02
5.101323e-02
4.118969e-02
2.686953e-02
1.635200e-02
7.996060e-03
1.679585e-03
3.382747e-04
2.212212e-04
1.287265e-03
1.095153e-03
7.720659e-04
1.121052e-05
2.796865e-03
5.841388e-03
1.283287e-02
2.727525e-02
4.176068e-02
5.414839e-02
6.264696e-02
5.579451e-02
4.651126e-02
3.708458e-02
2.552872e-02
1.615037e-02
6.680838e-03
5.823981e-04
2.003200e-05
6.510848e-06
1.061577e-03
2.973331e-04
3.081610e-04
5.107328e-05
1.430343e-03
7.278342e-03
1.578764e-02
2.789603e-02
3.773167e-02
4.643874e-02
5.725195e-02
5.777083e-02
5.169241e-02
3.967008e-02
2.491872e-02
1.932904e-02
8.121940e-03
1.599450e-03
2.010287e-05
8.213164e-04
3.317218e-03
1.487183e-03
5.128084e-04
5.864346e-05
1.050142e-03
4.351092e-03
1.388291e-02
2.910220e-02
3.984015e-02
4.685702e-02
5.703617e-02
5.336849e-02
5.287690e-02
4.760770e-02
2.787252e-02
1.591128e-02
6.011397e-03
9.154924e-04
3.719052e-05
2.482306e-04
2.624194e-03
3.395626e-03
8.840708e-04
8.709137e-05
1.511961e-03
6.526309e-03
1.441265e-02
2.778418e-02
3.760775e-02
4.743566e-02
5.555284e-02
5.384854e-02
4.606571e-02
4.035150e-02
2.793659e-02
1.558102e-02
9.034671e-03
1.782642e-03
9.956880e-05
6.724098e-04
2.701479e-03
1.596573e-03
7.286716e-04
1.248737e-04
7.980816e-04
5.632288e-03
1.229674e-02
2.210643e-02
3.680749e-02
4.565323e-02
5.023011e-02
5.233383e-02
5.460823e-02
4.405177e-02
2.455591e-02
1.666865e-02
8.519107e-03
1.420058e-03
2.486171e-04
4.405729e-04
2.088244e-03
1.626678e-03
6.284659e-04
2.076343e-06
1.025835e-03
4.148186e-03
1.178669e-02
2.446312e-02
3.454660e-02
4.446271e-02
4.933403e-02
5.136019e-02
5.086557e-02
4.378843e-02
2.907239e-02
1.575826e-02
7.772506e-03
2.009867e-03
7.998873e-05
4.507941e-04
1.650219e-03
2.036118e-03
1.866368e-03
8.871819e-06
2.271285e-04
3.292299e-03
8.630907e-03
1.916698e-02
3.461933e-02
4.349229e-02
5.160557e-02
5.454175e-02
4.518421e-02
3.696202e-02
2.626669e-02
1.538197e-02
6.690210e-03
9.066311e-04
2.228530e-04
1.607751e-03
2.479272e-03
1.251272e-03
1.089060e-03
2.026371e-04
9.611010e-04
2.277013e-03
8.254474e-03
2.140057e-02
3.226577e-02
3.992803e-02
4.795511e-02
5.013468e-02
4.622225e-02
3.526070e-02
2.493077e-02
1.335478e-02
5.826543e-03
1.329935e-03
7.105266e-05
2.868560e-04
1.347438e-03
2.535264e-03
1.269369e-03
6.304756e-04
7.417498e-05
3.420812e-03
8.353055e-03
2.034981e-02
3.582904e-02
4.696747e-02
5.013093e-02
5.551362e-02
4.623527e-02
3.899651e-02
2.587401e-02
1.185175e-02
4.150807e-03
1.158833e-03
3.534983e-04
1.238534e-03
2.194849e-03
3.746528e-03
2.515877e-03
4.822551e-04
1.805183e-04
3.819522e-03
7.811019e-03
1.559637e-02
2.966463e-02
3.889434e-02
5.168492e-02
5.405551e-02
4.602911e-02
3.601240e-02
2.669651e-02
1.497907e-02
7.771101e-03
1.858343e-03
9.077255e-06
4.210309e-04
1.297433e-03
3.184778e-03
1.861938e-03
1.498723e-03
2.839393e-04
1.663798e-03
5.988542e-03
1.609897e-02
2.810631e-02
3.619752e-02
4.489603e-02
5.060992e-02
4.472136e-02
4.043209e-02
2.851720e-02
1.307567e-02
6.508336e-03
1.423954e-03
2.160141e-07
7.479133e-04
2.285976e-03
3.892660e-03
1.589926e-03
2.328393e-04
1.594664e-04
2.468201e-03
6.191320e-03
1.535207e-02
2.497368e-02
3.333872e-02
3.688896e-02
4.789819e-02
4.211665e-02
3.496399e-02
2.710968e-02
1.174849e-02
5.240945e-03
7.945189e-04
4.288687e-05
9.684428e-04
3.326133e-03
5.303249e-03
2.921311e-03
9.136320e-04
6.155940e-05
1.135582e-03
5.024199e-03
1.231649e-02
3.153150e-02
3.921583e-02
4.983927e-02
5.292815e-02
4.057683e-02
3.644392e-02
2.737935e-02
1.427419e-02
8.021938e-03
1.604325e-03
2.814445e-04
1.558033e-03
2.021156e-03
3.816791e-03
2.926878e-03
9.083532e-04
2.997542e-04
1.435354e-03
6.147218e-03
1.338309e-02
2.555679e-02
3.287867e-02
4.020840e-02
4.820165e-02
4.369136e-02
3.681076e-02
2.466820e-02
1.301201e-02
8.560577e-03
1.821322e-03
7.783805e-05
9.803415e-04
3.707744e-03
7.689588e-03
2.990860e-03
1.825068e-03
2.145783e-04
2.246129e-03
4.843408e-03
1.445893e-02
2.850820e-02
3.514480e-02
3.562655e-02
4.498906e-02
3.409112e-02
3.424475e-02
2.554472e-02
1.295068e-02
7.482444e-03
1.052340e-03
1.000809e-04
8.665929e-04
3.851574e-03
5.405239e-03
3.795993e-03
2.939679e-03
5.209100e-04
1.201287e-03
4.630445e-03
1.221711e-02
2.573266e-02
3.238888e-02
3.657967e-02
4.041171e-02
3.823880e-02
3.524424e-02
2.580043e-02
1.646835e-02
1.071028e-02
3.012219e-03
1.106409e-05
9.716578e-04
3.213265e-03
8.245414e-03
3.018430e-03
1.714260e-03
2.935231e-04
8.403140e-04
2.375177e-03
7.981123e-03
1.818315e-02
2.588503e-02
3.800229e-02
4.238584e-02
4.024652e-02
3.763338e-02
2.860091e-02
1.304591e-02
5.786089e-03
1.245036e-03
3.801641e-04
7.429259e-04
2.475125e-03
6.341247e-03
3.168755e-03
2.478119e-03
5.625379e-04
9.160147e-04
3.269539e-03
9.905069e-03
1.805656e-02
2.445603e-02
3.292564e-02
3.977813e-02
3.765902e-02
3.703485e-02
2.545232e-02
1.245400e-02
6.279403e-03
9.270696e-04
1.671920e-04
1.234962e-03
3.696257e-03
5.925408e-03
3.148325e-03
3.153068e-03
1.227571e-03
2.886997e-04
2.060103e-03
7.729428e-03
1.916723e-02
3.064567e-02
3.969521e-02
4.018226e-02
3.144965e-02
2.587615e-02
1.909579e-02
1.034336e-02
5.619429e-03
1.227230e-03
5.292995e-04
1.941194e-03
3.012545e-03
4.423982e-03
3.276222e-03
3.577744e-03
1.740793e-03
4.559405e-06
1.197312e-03
7.942173e-03
1.572020e-02
2.431526e-02
3.201049e-02
3.906105e-02
3.646882e-02
3.079398e-02
2.165334e-02
8.695738e-03
3.988228e-03
8.055476e-04
5.119467e-05
9.396754e-04
3.013426e-03
6.299455e-03
5.848599e-03
3.684886e-03
1.514540e-03
6.470655e-06
8.776503e-04
4.645630e-03
1.376536e-02
2.125136e-02
2.890740e-02
3.569194e-02
3.075808e-02
2.913260e-02
2.128069e-02
1.129907e-02
5.801077e-03
1.169922e-03
1.291043e-04
1.463238e-03
4.307131e-03
1.016214e-02
6.927545e-03
6.664729e-03
2.442798e-03
7.671030e-05
1.600471e-03
4.780153e-03
1.498729e-02
2.125398e-02
2.568060e-02
3.861764e-02
3.390381e-02
2.491018e-02
2.009111e-02
8.756621e-03
5.153293e-03
6.587406e-04
6.586603e-04
2.610663e-03
6.699755e-03
9.399277e-03
5.071705e-03
5.841454e-03
4.494869e-03
4.863548e-04
3.259396e-04
5.983287e-03
1.435012e-02
2.251568e-02
2.822557e-02
3.052014e-02
2.979456e-02
3.103302e-02
2.092617e-02
1.086066e-02
4.965262e-03
7.669860e-04
8.405013e-04
1.961590e-03
5.796406e-03
9.301881e-03
6.134316e-03
4.178343e-03
2.334320e-03
8.531898e-05
3.068710e-04
2.609636e-03
9.989245e-03
1.942330e-02
2.636525e-02
3.214112e-02
3.016357e-02
2.554566e-02
2.127883e-02
1.227527e-02
4.790623e-03
6.944221e-04
2.121638e-04
1.129081e-03
3.345911e-03
9.409010e-03
8.495337e-03
7.875863e-03
4.138471e-03
1.883944e-04
3.309144e-04
2.282397e-03
8.025089e-03
1.717194e-02
2.669876e-02
3.109038e-02
2.925590e-02
2.641551e-02
2.036896e-02
1.211988e-02
4.044398e-03
2.574067e-04
8.463063e-04
3.211753e-03
5.156809e-03
5.885702e-03
6.929210e-03
7.900825e-03
4.665229e-03
7.029768e-04
1.385425e-04
3.402146e-03
1.328447e-02
2.048235e-02
2.648729e-02
3.075163e-02
3.064895e-02
2.710691e-02
1.933278e-02
1.062437e-02
5.050865e-03
7.705372e-04
3.332102e-04
2.159696e-03
6.927085e-03
1.003954e-02
9.050781e-03
7.665712e-03
2.809448e-03
2.659298e-04
4.050411e-04
2.953412e-03
5.997954e-03
1.581708e-02
2.403211e-02
2.902971e-02
3.048528e-02
2.632093e-02
1.680560e-02
7.540687e-03
3.659750e-03
6.961551e-04
6.105419e-04
3.261063e-03
6.658500e-03
1.029774e-02
1.082692e-02
1.032543e-02
6.360054e-03
3.130045e-03
5.904266e-05
1.254083e-03
5.944037e-03
1.416539e-02
1.997498e-02
2.122276e-02
2.443635e-02
2.268314e-02
2.114226e-02
1.055795e-02
2.999940e-03
2.191616e-04
1.663072e-03
6.462946e-03
9.886055e-03
1.193979e-02
1.275177e-02
1.187697e-02
6.381337e-03
2.360375e-03
2.926512e-05
1.263938e-03
4.882962e-03
1.196315e-02
1.888935e-02
2.618629e-02
2.492066e-02
2.193857e-02
1.360163e-02
5.880960e-03
2.204595e-03
3.300395e-04
1.031861e-03
6.594895e-03
1.071802e-02
1.359033e-02
1.435156e-02
1.012819e-02
5.583386e-03
2.889428e-03
3.164809e-05
6.884373e-04
4.963420e-03
1.068162e-02
1.804087e-02
2.284885e-02
2.796345e-02
2.308867e-02
1.520461e-02
9.886297e-03
2.149526e-03
2.479461e-05
1.221008e-03
2.887188e-03
7.338849e-03
1.151283e-02
1.493547e-02
1.196712e-02
1.139017e-02
3.007143e-03
4.344241e-05
4.249534e-04
5.137454e-03
1.087095e-02
1.675314e-02
2.278982e-02
2.431290e-02
2.083783e-02
1.932006e-02
1.223734e-02
3.365903e-03
4.373330e-04
8.170378e-04
4.687508e-03
8.406552e-03
1.069734e-02
1.479360e-02
1.114595e-02
6.568024e-03
2.247751e-03
1.778863e-05
1.548574e-03
5.261394e-03
1.438044e-02
2.656947e-02
3.331332e-02
2.968151e-02
2.310605e-02
1.815536e-02
8.109219e-03
2.860583e-03
1.296633e-03
7.487652e-04
5.739918e-03
8.526438e-03
1.044011e-02
1.208363e-02
1.114557e-02
6.427580e-03
2.194652e-03
3.430687e-05
1.346305e-03
7.067603e-03
1.448346e-02
1.931883e-02
2.500281e-02
2.711264e-02
2.290089e-02
2.007166e-02
1.417579e-02
4.720396e-03
1.238456e-03
8.462551e-05
3.160697e-03
6.302362e-03
8.324734e-03
1.296142e-02
1.055458e-02
6.746869e-03
3.452051e-03
8.431615e-05
5.135724e-04
4.779542e-03
1.366724e-02
2.104241e-02
2.715576e-02
3.324260e-02
2.545666e-02
2.119797e-02
1.392220e-02
5.761341e-03
2.554782e-03
7.079585e-05
1.921194e-03
5.329125e-03
7.825129e-03
1.329011e-02
9.240326e-03
5.784590e-03
3.619639e-03
1.440378e-04
7.698500e-04
7.446974e-03
1.491511e-02
2.096003e-02
2.749194e-02
3.142298e-02
2.698051e-02
2.218472e-02
1.523408e-02
5.858556e-03
1.829671e-03
5.186826e-06
2.628164e-03
7.127167e-03
1.213497e-02
1.467782e-02
1.134483e-02
6.017038e-03
3.349817e-03
9.433716e-06
6.028046e-04
4.288718e-03
1.393649e-02
2.388856e-02
3.158540e-02
4.071726e-02
3.625027e-02
2.914979e-02
1.708445e-02
5.797470e-03
1.301281e-03
7.203319e-04
4.281008e-03
6.430950e-03
8.049682e-03
1.331639e-02
1.042179e-02
8.569929e-03
3.919723e-03
1.063828e-05
1.310723e-03
5.611164e-03
1.292331e-02
2.237536e-02
2.905764e-02
3.704780e-02
3.048287e-02
2.454833e-02
1.541306e-02
6.842624e-03
2.174854e-03
6.776213e-10
2.599542e-03
6.736797e-03
1.076670e-02
1.125967e-02
9.696461e-03
8.869207e-03
6.536526e-03
1.893104e-03
1.401492e-04
2.181093e-03
1.026694e-02
1.838989e-02
2.565177e-02
2.647592e-02
2.393308e-02
1.859153e-02
1.244047e-02
2.941555e-03
8.335586e-04
2.169972e-04
3.535149e-03
5.612548e-03
9.367458e-03
1.797481e-02
1.772030e-02
1.510152e-02
1.063327e-02
1.542772e-03
7.154036e-06
2.292506e-03
1.005395e-02
1.666112e-02
2.151128e-02
2.428779e-02
1.735823e-02
1.370666e-02
9.863091e-03
2.586763e-03
3.031557e-04
8.792795e-04
5.732523e-03
1.172542e-02
1.542273e-02
2.054350e-02
1.866410e-02
1.522805e-02
8.135654e-03
1.617098e-03
1.104301e-04
4.815209e-04
6.331863e-03
1.167883e-02
1.985940e-02
2.730073e-02
2.440162e-02
1.900685e-02
9.993546e-03
2.746625e-03
8.389155e-04
3.601976e-04
5.854222e-03
1.263327e-02
1.761337e-02
2.391529e-02
1.671399e-02
1.329976e-02
7.886796e-03
2.582756e-03
4.453519e-04
8.217904e-04
6.134479e-03
1.037118e-02
1.756893e-02
2.268352e-02
1.847716e-02
1.802636e-02
1.444777e-02
2.796726e-03
7.993085e-04
3.937381e-04
5.695890e-03
9.579643e-03
1.262632e-02
1.928873e-02
1.765902e-02
1.656120e-02
1.128603e-02
2.294817e-03
3.659447e-04
6.348670e-04
6.261572e-03
1.070512e-02
1.617988e-02
2.277125e-02
2.190645e-02
1.993611e-02
1.146815e-02
2.932973e-03
4.895956e-04
5.660984e-04
5.492630e-03
8.123836e-03
1.269228e-02
1.910148e-02
1.633494e-02
1.283062e-02
7.915924e-03
2.778617e-03
5.522853e-05
1.177836e-03
1.018625e-02
1.513698e-02
2.032143e-02
2.278074e-02
1.732772e-02
1.436522e-02
9.218106e-03
3.400961e-03
6.061578e-04
4.991197e-04
4.117453e-03
9.920404e-03
1.699915e-02
2.335280e-02
1.691806e-02
1.402006e-02
8.117680e-03
1.723491e-03
5.339103e-04
8.176897e-05
4.223181e-03
1.235743e-02
1.902417e-02
2.447228e-02
2.025725e-02
1.609575e-02
1.183040e-02
3.817439e-03
1.002309e-03
5.802757e-04
6.203771e-03
1.032869e-02
1.507931e-02
1.940558e-02
2.078620e-02
1.883286e-02
1.163597e-02
3.066416e-03
3.324611e-04
9.580752e-04
4.454981e-03
7.811284e-03
1.304338e-02
2.188844e-02
2.010785e-02
1.893628e-02
1.306686e-02
3.236267e-03
5.846270e-04
3.864827e-04
6.017133e-03
1.123539e-02
1.554566e-02
2.023079e-02
1.844365e-02
1.563429e-02
9.269440e-03
6.209679e-03
1.444387e-03
3.770515e-04
4.310727e-03
1.285404e-02
2.105267e-02
2.552842e-02
2.130638e-02
1.723149e-02
1.115782e-02
4.263084e-03
1.148064e-03
1.191205e-04
4.170529e-03
1.008903e-02
1.511439e-02
2.099099e-02
1.903669e-02
1.477412e-02
1.170326e-02
3.049694e-03
3.009595e-04
3.744932e-04
5.066708e-03
9.917182e-03
1.721428e-02
2.178241e-02
2.264999e-02
1.919064e-02
1.082266e-02
3.100332e-03
3.081945e-04
4.827251e-04
2.445812e-03
6.537502e-03
1.333846e-02
1.535089e-02
1.828689e-02
1.717103e-02
1.161726e-02
4.600662e-03
1.303760e-03
2.225514e-04
3.502938e-03
7.744262e-03
1.350319e-02
1.712909e-02
1.614425e-02
1.652630e-02
1.278050e-02
4.456918e-03
6.141876e-04
3.503840e-04
5.074175e-03
1.121444e-02
1.805111e-02
2.145287e-02
2.092528e-02
1.958295e-02
1.326483e-02
5.331590e-03
1.241057e-03
1.939841e-06
3.032106e-03
8.195676e-03
1.389671e-02
1.727707e-02
1.602619e-02
1.341049e-02
1.053147e-02
4.533168e-03
2.673935e-04
6.316787e-04
5.918291e-03
1.135811e-02
1.579357e-02
1.960141e-02
1.878600e-02
1.873271e-02
1.543072e-02
5.795829e-03
1.456749e-03
3.989855e-05
2.066727e-03
8.092394e-03
9.345950e-03
1.462796e-02
1.614010e-02
1.376111e-02
8.908061e-03
3.046470e-03
3.347282e-04
2.808076e-04
4.423166e-03
9.097460e-03
1.607196e-02
2.324552e-02
2.393956e-02
1.684759e-02
1.354362e-02
6.182972e-03
3.002058e-03
2.211147e-04
9.270235e-04
6.198678e-03
1.178944e-02
1.676939e-02
1.751007e-02
1.414136e-02
1.126478e-02
3.592982e-03
4.612340e-04
4.191624e-04
5.662506e-03
1.154572e-02
1.429289e-02
2.078355e-02
2.289507e-02
1.839754e-02
1.569374e-02
6.493946e-03
1.141852e-03
7.295850e-05
8.060570e-04
5.325376e-03
9.703308e-03
1.305664e-02
1.619172e-02
1.389619e-02
7.383753e-03
3.416799e-03
8.322082e-04
1.935071e-04
4.986241e-03
1.208664e-02
1.789087e-02
2.056932e-02
2.139109e-02
1.843126e-02
1.335708e-02
7.899674e-03
2.246016e-03
1.819871e-04
5.327497e-04
3.983657e-03
7.955595e-03
1.311608e-02
1.813823e-02
1.507192e-02
7.710278e-03
2.761711e-03
3.275810e-04
2.527435e-04
4.781967e-03
1.051337e-02
1.846149e-02
2.308222e-02
2.531532e-02
2.256712e-02
1.607087e-02
9.663901e-03
2.921470e-03
7.253137e-05
1.525857e-03
3.885079e-03
8.669902e-03
1.292352e-02
1.570612e-02
1.215205e-02
9.871269e-03
3.666692e-03
7.926827e-04
2.611159e-04
3.319702e-03
1.157972e-02
1.798682e-02
2.006529e-02
2.114497e-02
1.776629e-02
1.549540e-02
9.289977e-03
3.127248e-03
4.032042e-04
9.729688e-04
5.030677e-03
8.221140e-03
1.220965e-02
1.680724e-02
1.497761e-02
9.483689e-03
4.110993e-03
9.896025e-05
3.110348e-04
3.032924e-03
7.719507e-03
1.349978e-02
1.964534e-02
2.514411e-02
2.123453e-02
1.666542e-02
9.956029e-03
3.982930e-03
3.453286e-04
4.428856e-04
3.810414e-03
9.001465e-03
9.793683e-03
1.331840e-02
1.311510e-02
7.884603e-03
4.765666e-03
2.850918e-04
4.294977e-04
4.613100e-03
1.251401e-02
1.943251e-02
2.537010e-02
2.775848e-02
1.904866e-02
1.281833e-02
1.083586e-02
3.503956e-03
1.010863e-03
1.476871e-04
4.269043e-03
9.659875e-03
1.020985e-02
1.306315e-02
1.108091e-02
7.640068e-03
5.073944e-03
2.991239e-04
1.245585e-04
3.330015e-03
9.687283e-03
1.586273e-02
2.279612e-02
3.275449e-02
2.774478e-02
2.170249e-02
1.327909e-02
2.794044e-03
2.465342e-04
4.394070e-04
3.275892e-03
5.727696e-03
9.451070e-03
1.623962e-02
1.630406e-02
1.324138e-02
5.053060e-03
2.054968e-04
1.994008e-04
4.917996e-03
1.372402e-02
1.843304e-02
2.373067e-02
2.911121e-02
2.081859e-02
1.672035e-02
1.163699e-02
4.065546e-03
8.239839e-04
6.979430e-04
5.886626e-03
1.051780e-02
1.274653e-02
1.775779e-02
1.262807e-02
8.631725e-03
5.515923e-03
4.821844e-04
2.853652e-04
3.119719e-03
1.144116e-02
1.781463e-02
2.110771e-02
2.636285e-02
2.008289e-02
1.592785e-02
1.084534e-02
3.718044e-03
6.529296e-04
2.323276e-04
4.208145e-03
1.001747e-02
1.465981e-02
1.933355e-02
1.487478e-02
1.102095e-02
5.294784e-03
8.202121e-04
1.763679e-05
2.045438e-03
8.724338e-03
1.576137e-02
2.441385e-02
3.074024e-02
2.223106e-02
2.148511e-02
1.663472e-02
5.005339e-03
8.933917e-04
5.111285e-04
5.438898e-03
9.745764e-03
1.077890e-02
1.424735e-02
1.159675e-02
1.092423e-02
5.371955e-03
3.455258e-04
1.258223e-04
2.758140e-03
1.006248e-02
1.425436e-02
2.371385e-02
3.364639e-02
2.537432e-02
2.257221e-02
1.213744e-02
3.539528e-03
8.486811e-04
1.498572e-04
3.097248e-03
6.737743e-03
1.138008e-02
1.540777e-02
1.038408e-02
1.097305e-02
5.268853e-03
8.836419e-04
2.607946e-05
1.686800e-03
9.884319e-03
1.807566e-02
2.198287e-02
2.719348e-02
2.327488e-02
1.924678e-02
1.356871e-02
4.838343e-03
1.156467e-03
2.839142e-04
2.930225e-03
4.668866e-03
1.241755e-02
1.758313e-02
1.481554e-02
1.514917e-02
7.270351e-03
6.836923e-04
4.941281e-05
1.143113e-03
7.865538e-03
1.324056e-02
2.055474e-02
2.623412e-02
2.005131e-02
1.708550e-02
1.176297e-02
5.225586e-03
1.740505e-03
1.476351e-06
2.957179e-03
7.001054e-03
1.183906e-02
1.577749e-02
1.281226e-02
1.380717e-02
9.576522e-03
2.119184e-03
2.003781e-04
1.579132e-03
7.159695e-03
1.308362e-02
1.732170e-02
2.387760e-02
2.355604e-02
2.001204e-02
1.417673e-02
5.060730e-03
2.209174e-03
7.815286e-06
2.641106e-03
7.589932e-03
1.284122e-02
1.616251e-02
1.168833e-02
1.030853e-02
5.556450e-03
1.066265e-03
3.275305e-05
2.344185e-03
9.906493e-03
1.518043e-02
1.908932e-02
2.638206e-02
2.124612e-02
1.968502e-02
1.422288e-02
3.930360e-03
1.067982e-03
2.044382e-04
2.455591e-03
4.657836e-03
1.015452e-02
1.734883e-02
1.599752e-02
1.470709e-02
7.587115e-03
1.678004e-03
4.688091e-06
1.024626e-03
6.697523e-03
1.174859e-02
2.247974e-02
2.609196e-02
2.163303e-02
1.923793e-02
1.381729e-02
5.655167e-03
2.139559e-03
2.059897e-06
3.135437e-03
8.270774e-03
1.261120e-02
1.639036e-02
1.298053e-02
1.168382e-02
7.778130e-03
2.122111e-03
1.832513e-04
9.179229e-04
6.911878e-03
1.232780e-02
1.790604e-02
2.608922e-02
2.169105e-02
2.076772e-02
1.473787e-02
5.296641e-03
1.550204e-03
2.030513e-07
3.237910e-03
8.514097e-03
1.684929e-02
2.026366e-02
1.414993e-02
1.420375e-02
6.653716e-03
2.798827e-03
4.163578e-04
7.940875e-04
4.638272e-03
1.105793e-02
1.416678e-02
2.272725e-02
2.295718e-02
2.110120e-02
1.596412e-02
5.524095e-03
9.565841e-04
4.507775e-04
3.919938e-03
8.605003e-03
1.433676e-02
2.009285e-02
1.629232e-02
1.348417e-02
1.048051e-02
2.697842e-03
1.467954e-04
9.379833e-04
6.323082e-03
1.310831e-02
1.713854e-02
2.110614e-02
1.872771e-02
1.897025e-02
1.364432e-02
3.604718e-03
6.893511e-04
4.353836e-04
3.561937e-03
8.190119e-03
1.318678e-02
1.924885e-02
1.792875e-02
1.527569e-02
8.987158e-03
3.688752e-03
5.831394e-04
3.476687e-04
5.010945e-03
1.127887e-02
1.999562e-02
2.466049e-02
2.159944e-02
1.823685e-02
1.354345e-02
5.209864e-03
8.685853e-04
4.041403e-06
2.077179e-03
7.702961e-03
1.100324e-02
1.648204e-02
2.062204e-02
1.681864e-02
1.224282e-02
4.480290e-03
5.432039e-04
3.313657e-04
3.925646e-03
9.362784e-03
1.610754e-02
2.257421e-02
2.110211e-02
1.577120e-02
1.206668e-02
4.965531e-03
9.875956e-04
3.720617e-07
3.923774e-03
8.945245e-03
1.128193e-02
1.590940e-02
1.572547e-02
1.223878e-02
1.093183e-02
5.534061e-03
7.619137e-04
6.268827e-05
3.394385e-03
1.022202e-02
1.286624e-02
2.172141e-02
2.315384e-02
1.898613e-02
1.571847e-02
6.456584e-03
1.607400e-03
5.087734e-05
2.049075e-03
7.525927e-03
1.268330e-02
1.751191e-02
1.738613e-02
1.277744e-02
1.061405e-02
5.066696e-03
1.065333e-03
1.939871e-05
2.807173e-03
8.751717e-03
1.550099e-02
1.873513e-02
2.158525e-02
2.076155e-02
1.310052e-02
6.617079e-03
1.651822e-03
3.106396e-05
1.794459e-03
6.803945e-03
1.433350e-02
1.646417e-02
1.937107e-02
1.470155e-02
1.035049e-02
4.988533e-03
1.097334e-03
2.465163e-05
3.268127e-03
9.822836e-03
1.198767e-02
1.335226e-02
2.111566e-02
1.826711e-02
1.509028e-02
7.655622e-03
1.420154e-03
5.526729e-05
2.165798e-03
6.006380e-03
1.232605e-02
1.924403e-02
2.344660e-02
1.934005e-02
1.328044e-02
5.309568e-03
1.173012e-03
5.107567e-06
3.262706e-03
8.088489e-03
1.389520e-02
2.215711e-02
2.095527e-02
1.872986e-02
1.468355e-02
6.668325e-03
1.322148e-03
1.863459e-04
1.179044e-03
6.936490e-03
1.081014e-02
1.627841e-02
2.006018e-02
1.506018e-02
1.128794e-02
5.092233e-03
1.112606e-03
5.834634e-07
2.169619e-03
8.213708e-03
1.111208e-02
1.540000e-02
1.974308e-02
1.359516e-02
1.232022e-02
7.847391e-03
1.407107e-03
1.501903e-05
1.819071e-03
7.550922e-03
1.278595e-02
1.851699e-02
2.086167e-02
1.919363e-02
1.401412e-02
5.883342e-03
9.004148e-04
6.381411e-06
2.694333e-03
8.145031e-03
1.111638e-02
1.487661e-02
1.824613e-02
1.555510e-02
1.254666e-02
7.408887e-03
1.439683e-03
2.882608e-07
2.037776e-03
7.823826e-03
1.098676e-02
1.734863e-02
2.331892e-02
1.836356e-02
1.217900e-02
6.787118e-03
6.435204e-04
2.986898e-07
9.546034e-04
4.789897e-03
1.097139e-02
1.758959e-02
2.004838e-02
1.725974e-02
1.341374e-02
6.589919e-03
2.132979e-03
3.567115e-04
8.334283e-04
8.214053e-03
1.308823e-02
1.979956e-02
2.297867e-02
1.567974e-02
1.032065e-02
6.642750e-03
1.374309e-03
2.333103e-04
1.040735e-03
5.729315e-03
1.114172e-02
1.593420e-02
2.053137e-02
1.809087e-02
1.573695e-02
9.767723e-03
2.090509e-03
1.595965e-05
3.726600e-03
1.015050e-02
1.175598e-02
1.560161e-02
1.837472e-02
1.616713e-02
1.447611e-02
1.044885e-02
2.294026e-03
6.940329e-05
1.162697e-03
6.959156e-03
1.076955e-02
1.789520e-02
1.999174e-02
1.595203e-02
1.203908e-02
6.058848e-03
1.209304e-03
1.739998e-04
1.815139e-03
7.421963e-03
1.411467e-02
2.049385e-02
2.343014e-02
2.012643e-02
1.511854e-02
9.733856e-03
2.005646e-03
4.730223e-04
1.432644e-03
7.855589e-03
1.186198e-02
1.895267e-02
2.145765e-02
1.558299e-02
1.240745e-02
7.008801e-03
1.522180e-03
1.031506e-05
1.507895e-03
6.724960e-03
1.149002e-02
1.479169e-02
2.048715e-02
1.643195e-02
1.524714e-02
8.247579e-03
1.960186e-03
1.901638e-04
1.329725e-03
7.222379e-03
1.056190e-02
1.496079e-02
1.840069e-02
1.449357e-02
1.186963e-02
8.145552e-03
2.045241e-03
3.635759e-04
1.343613e-03
5.452980e-03
9.709781e-03
1.642092e-02
2.220717e-02
1.856691e-02
1.651515e-02
1.205927e-02
2.948498e-03
6.104457e-04
6.783350e-04
6.300052e-03
8.892274e-03
1.460383e-02
2.011361e-02
1.547384e-02
1.509591e-02
8.159160e-03
1.351276e-03
5.721648e-06
7.142049e-04
6.823895e-03
1.109887e-02
1.760002e-02
2.671334e-02
1.997357e-02
1.418766e-02
9.423120e-03
1.906120e-03
4.966911e-04
4.501134e-04
5.071612e-03
9.075988e-03
1.413340e-02
1.590036e-02
1.408321e-02
9.755708e-03
5.164910e-03
1.153622e-03
4.629899e-05
1.123786e-03
6.298392e-03
7.806370e-03
1.510226e-02
2.480091e-02
1.868536e-02
1.536418e-02
1.202258e-02
2.871775e-03
4.104789e-04
5.430758e-04
4.989697e-03
8.998960e-03
1.419550e-02
1.636892e-02
1.440597e-02
1.580141e-02
1.385234e-02
4.938831e-03
5.484251e-04
1.150997e-03
6.387034e-03
1.291133e-02
1.586994e-02
2.058220e-02
1.718206e-02
1.663942e-02
1.131552e-02
2.709172e-03
8.280359e-04
3.022294e-04
3.361307e-03
9.563764e-03
1.326185e-02
1.893372e-02
1.545720e-02
1.320028e-02
6.828366e-03
1.740598e-03
1.227445e-04
6.420076e-04
6.450002e-03
1.242542e-02
1.750140e-02
2.376574e-02
2.139997e-02
1.678892e-02
1.177797e-02
3.205208e-03
1.040710e-03
1.627442e-04
2.641448e-03
6.540386e-03
1.414333e-02
2.032996e-02
1.619566e-02
1.285690e-02
8.523019e-03
2.397020e-03
4.629321e-04
3.388419e-04
5.727640e-03
1.159757e-02
1.678574e-02
1.966580e-02
1.916957e-02
1.836126e-02
1.369435e-02
4.209990e-03
4.950201e-04
6.244066e-04
4.633424e-03
9.065157e-03
1.289070e-02
1.697876e-02
1.875948e-02
1.468787e-02
7.974092e-03
2.945237e-03
1.059680e-04
7.760995e-04
4.440567e-03
7.133298e-03
1.733489e-02
2.373081e-02
2.179926e-02
1.885824e-02
1.343002e-02
2.797776e-03
9.232770e-04
3.752484e-06
3.237514e-03
9.136718e-03
1.686079e-02
1.933421e-02
1.680500e-02
1.382976e-02
9.385118e-03
4.013571e-03
1.262691e-03
3.133095e-04
5.249760e-03
1.290257e-02
1.631824e-02
2.503685e-02
2.152137e-02
1.998882e-02
1.393792e-02
6.356624e-03
1.106253e-03
1.430845e-04
3.954963e-03
7.990176e-03
1.344946e-02
1.575844e-02
1.594320e-02
1.371168e-02
1.150526e-02
4.447539e-03
3.236212e-04
6.116395e-04
6.368094e-03
1.367094e-02
1.741489e-02
2.343625e-02
2.284624e-02
2.196774e-02
1.351436e-02
5.910108e-03
1.102965e-03
3.476664e-06
5.794501e-04
4.389158e-03
1.050963e-02
2.238223e-02
2.156635e-02
1.789644e-02
9.288233e-03
2.290885e-03
7.290610e-04
6.504546e-05
4.091051e-03
1.195862e-02
2.051909e-02
2.340205e-02
2.033351e-02
1.872586e-02
1.504158e-02
7.293009e-03
2.348688e-03
9.013412e-06
2.749723e-03
7.239829e-03
1.240521e-02
1.405814e-02
1.603104e-02
1.570112e-02
1.142106e-02
3.956768e-03
6.484546e-04
6.231114e-04
7.248511e-03
1.241070e-02
1.561383e-02
2.180672e-02
2.010367e-02
1.828657e-02
1.523164e-02
7.674254e-03
2.279022e-03
3.905725e-05
1.324308e-03
6.224641e-03
1.224530e-02
1.667083e-02
1.884400e-02
1.442453e-02
9.231241e-03
2.778852e-03
2.619959e-04
3.089416e-04
4.910569e-03
1.191476e-02
1.893388e-02
2.547213e-02
2.598873e-02
2.524692e-02
2.071920e-02
1.058873e-02
4.344238e-03
4.240736e-05
1.815286e-03
6.523762e-03
1.184608e-02
1.526640e-02
1.430638e-02
1.185196e-02
7.668399e-03
3.426266e-03
7.569769e-04
4.093833e-05
3.260885e-03
1.028884e-02
1.713502e-02
2.253770e-02
2.623164e-02
2.068718e-02
1.719213e-02
7.700508e-03
2.199118e-03
7.969770e-05
9.090007e-04
4.597433e-03
8.745421e-03
1.450404e-02
1.641113e-02
1.356573e-02
8.850005e-03
3.978813e-03
4.128496e-04
5.173372e-04
4.764533e-03
1.221381e-02
1.723626e-02
2.136050e-02
2.655173e-02
2.121872e-02
1.804825e-02
1.015170e-02
2.464053e-03
2.799658e-04
1.459369e-03
5.671192e-03
8.948118e-03
1.323938e-02
1.627828e-02
1.281830e-02
9.421512e-03
4.272519e-03
1.324554e-04
5.897427e-04
6.048190e-03
1.292150e-02
1.694999e-02
2.658248e-02
2.823058e-02
2.131188e-02
1.593743e-02
9.328869e-03
2.694858e-03
4.739841e-04
2.727485e-04
3.992902e-03
8.628351e-03
1.363918e-02
1.657184e-02
1.199416e-02
8.656592e-03
3.386906e-03
1.762680e-04
7.190348e-04
4.676810e-03
1.374692e-02
1.918837e-02
2.392417e-02
2.374193e-02
2.003608e-02
1.519043e-02
1.073653e-02
3.077271e-03
1.246771e-04
1.484152e-03
5.098390e-03
9.277606e-03
1.240103e-02
1.577304e-02
1.433925e-02
1.135155e-02
5.003168e-03
2.701358e-04
1.096224e-04
2.463364e-03
7.528502e-03
1.608207e-02
2.502798e-02
2.854662e-02
2.311734e-02
1.826583e-02
9.292998e-03
2.249808e-03
6.171023e-04
3.903255e-04
5.171918e-03
8.575643e-03
1.126416e-02
1.443418e-02
9.782040e-03
6.707924e-03
3.780408e-03
7.749415e-04
2.560689e-05
4.899606e-03
1.156292e-02
1.824678e-02
2.598149e-02
2.799624e-02
2.491323e-02
2.125774e-02
1.284173e-02
3.686327e-03
2.296734e-04
9.823544e-04
5.077898e-03
8.933097e-03
1.273729e-02
1.750954e-02
1.503816e-02
8.064736e-03
4.571473e-03
2.040045e-04
9.570976e-04
4.936358e-03
1.250105e-02
1.849126e-02
2.396689e-02
2.446900e-02
2.308574e-02
1.816447e-02
1.134477e-02
3.853370e-03
5.436604e-04
3.714960e-04
4.753118e-03
8.181755e-03
1.032533e-02
1.527713e-02
1.286639e-02
1.003501e-02
4.691441e-03
3.209328e-04
9.139866e-07
3.076047e-03
1.117711e-02
1.716663e-02
2.415096e-02
3.314100e-02
2.475059e-02
1.993288e-02
1.151378e-02
3.663082e-03
1.653692e-03
6.964191e-05
2.611398e-03
6.146743e-03
1.289473e-02
1.759688e-02
1.327048e-02
9.715294e-03
4.469556e-03
5.941016e-04
3.158312e-07
2.877658e-03
9.817782e-03
1.756931e-02
2.341712e-02
2.565374e-02
2.218703e-02
2.151686e-02
1.690642e-02
4.359726e-03
1.324638e-03
1.184597e-04
3.906180e-03
5.640087e-03
7.066246e-03
1.186760e-02
1.156300e-02
9.396541e-03
4.166161e-03
3.348080e-04
3.028841e-05
3.255724e-03
9.152358e-03
1.589843e-02
2.302125e-02
2.857800e-02
2.481247e-02
2.228851e-02
1.295925e-02
4.658453e-03
1.134605e-03
3.315248e-04
4.025337e-03
7.751858e-03
1.245519e-02
1.577363e-02
1.142291e-02
9.748556e-03
5.354753e-03
7.290618e-04
2.364900e-11
2.072687e-03
9.256830e-03
1.570697e-02
2.430304e-02
2.925167e-02
2.597750e-02
2.304518e-02
1.487171e-02
4.491317e-03
1.399406e-03
1.099050e-04
2.071229e-03
4.923544e-03
1.146172e-02
1.705598e-02
1.397029e-02
9.425909e-03
5.822168e-03
5.491033e-04
1.652156e-06
1.581782e-03
9.571947e-03
1.685729e-02
2.295154e-02
2.735563e-02
2.758408e-02
2.455812e-02
1.495111e-02
5.591211e-03
2.187318e-03
1.392441e-04
2.043275e-03
5.563261e-03
1.207284e-02
1.510934e-02
1.065600e-02
9.661983e-03
6.602803e-03
1.474535e-03
2.544900e-04
2.425520e-03
1.527880e-02
2.009998e-02
2.419334e-02
2.422838e-02
2.007100e-02
1.950558e-02
1.609102e-02
6.427050e-03
1.067778e-03
1.319218e-04
3.305834e-03
6.252686e-03
9.635951e-03
1.708523e-02
1.255356e-02
1.039553e-02
6.644228e-03
6.657177e-04
1.501767e-05
1.670099e-03
9.084019e-03
1.548941e-02
2.082608e-02
3.270817e-02
2.554158e-02
2.261149e-02
1.550057e-02
5.052992e-03
1.951280e-03
6.869149e-05
2.258435e-03
6.493202e-03
1.115813e-02
1.373223e-02
1.262182e-02
8.923439e-03
4.401803e-03
1.224532e-03
8.476531e-06
2.234310e-03
8.600144e-03
1.295260e-02
2.424014e-02
3.271415e-02
2.214112e-02
2.485836e-02
1.299148e-02
5.059465e-03
2.159163e-03
2.528021e-06
3.105784e-03
7.247990e-03
1.075275e-02
1.518590e-02
1.300535e-02
1.146278e-02
7.734735e-03
1.710324e-03
5.159928e-07
1.954819e-03
8.358398e-03
1.295074e-02
1.615651e-02
2.629507e-02
2.344360e-02
2.162712e-02
1.495988e-02
6.128015e-03
1.419819e-03
1.770290e-04
3.352309e-03
6.300556e-03
1.191245e-02
1.854421e-02
1.448691e-02
1.199325e-02
9.312809e-03
2.644767e-03
1.570408e-04
6.886143e-04
5.806449e-03
1.557693e-02
2.272585e-02
2.894650e-02
2.227936e-02
2.078538e-02
1.467082e-02
6.722362e-03
2.308844e-03
7.919160e-06
3.220411e-03
9.525409e-03
1.325473e-02
1.805379e-02
1.684032e-02
1.369763e-02
7.469543e-03
1.096128e-03
1.824626e-05
2.239980e-03
7.981206e-03
1.141737e-02
1.787532e-02
2.220367e-02
2.439952e-02
2.063931e-02
1.535250e-02
5.917120e-03
1.267872e-03
1.232626e-05
3.765658e-03
7.996044e-03
1.278261e-02
1.804803e-02
1.599428e-02
1.190221e-02
6.639610e-03
3.084505e-03
4.207464e-04
8.480805e-04
4.904413e-03
1.117814e-02
1.882328e-02
2.382504e-02
2.130635e-02
1.778158e-02
1.566544e-02
5.462896e-03
1.262379e-03
5.641171e-05
3.754179e-03
9.100501e-03
1.621011e-02
2.093854e-02
1.955031e-02
1.906363e-02
1.244168e-02
3.470474e-03
4.973172e-04
2.837688e-04
3.686186e-03
6.828355e-03
1.199420e-02
2.642221e-02
