0.000000e+00
3.543600e+14
5.116958e+17
1.745772e+20
2.501956e+22
1.907100e+24
8.801902e+25
2.669793e+27
5.626121e+28
8.557089e+29
9.623791e+30
8.091041e+31
5.063479e+32
2.299866e+33
7.115929e+33
1.272744e+34
6.719656e+33
7.974886e+33
2.140965e+35
9.604907e+35
1.908321e+36
1.641748e+36
2.267364e+35
4.943623e+35
2.022511e+36
9.987919e+35
7.150530e+34
1.181830e+36
1.543725e+35
1.612436e+36
3.820188e+36
1.719132e+35
4.385297e+36
7.893880e+36
4.826343e+35
3.418031e+36
2.016594e+36
4.543585e+36
2.361384e+37
8.351563e+36
9.327796e+36
6.891203e+37
8.632309e+37
4.631108e+37
1.468049e+37
2.817506e+36
1.458234e+35
5.947356e+36
9.093535e+36
1.706756e+36
1.597907e+36
7.747145e+36
9.567069e+36
9.059846e+36
4.693626e+36
1.268973e+35
9.975725e+36
7.590688e+36
2.355432e+36
2.190624e+37
1.343500e+36
4.902287e+37
1.245568e+38
4.561622e+37
2.329602e+35
4.849877e+36
3.074129e+36
2.574215e+37
2.847826e+37
3.804063e+37
8.597352e+37
1.296958e+38
1.189149e+38
1.123275e+38
1.169276e+38
4.996346e+37
7.323287e+35
2.207749e+37
8.134562e+34
2.919342e+37
6.282483e+34
9.847968e+37
1.119137e+38
4.567319e+35
1.923202e+37
1.236839e+37
1.326527e+38
2.383140e+37
9.557943e+37
1.762457e+38
2.223557e+36
9.423969e+37
6.206794e+37
1.931323e+35
6.036200e+36
7.643199e+36
4.159168e+37
1.503885e+37
2.314537e+36
1.952913e+37
6.373221e+36
3.857113e+36
9.288801e+36
5.806939e+36
5.604381e+37
8.586783e+36
3.407640e+37
4.086049e+36
2.583737e+38
7.074527e+38
1.924129e+38
5.472109e+37
1.864273e+38
3.472336e+37
2.366792e+36
1.129624e+37
1.828668e+36
8.959850e+34
1.707749e+38
1.204701e+39
1.411262e+39
2.375151e+38
1.438156e+37
3.123704e+36
3.308707e+38
5.084537e+38
2.725009e+38
1.622481e+38
5.400166e+37
7.814651e+37
6.399038e+38
6.112178e+38
1.497625e+38
4.029020e+37
7.449758e+37
7.496473e+37
1.194344e+38
6.701975e+38
1.560095e+39
7.580570e+38
1.011000e+35
9.461009e+37
8.966408e+35
1.256710e+37
9.573439e+38
1.696074e+39
1.853119e+38
1.686466e+38
3.614594e+36
5.145506e+38
4.593618e+38
5.013371e+37
1.992858e+38
9.094274e+38
2.629759e+38
4.534901e+38
1.456824e+39
6.229040e+38
2.295186e+38
4.785336e+38
5.100051e+38
1.545811e+38
3.141628e+38
1.746018e+39
2.291887e+39
3.041036e+38
2.896618e+38
4.650297e+38
6.657912e+37
5.078118e+37
4.280916e+38
8.905489e+38
7.610818e+38
5.085343e+38
4.678642e+38
6.173699e+38
8.460407e+38
8.603363e+38
6.045049e+38
5.125479e+38
7.053106e+38
4.492053e+38
6.386316e+37
2.200632e+39
4.392190e+39
3.625136e+39
2.192894e+39
1.115604e+39
1.312347e+38
1.368184e+38
1.265766e+38
1.898356e+38
8.064530e+38
6.594228e+37
7.565366e+38
2.130055e+39
1.966421e+39
1.340301e+39
6.166257e+38
3.782939e+37
1.514335e+37
1.388106e+38
1.409417e+39
1.484650e+39
8.375903e+37
4.245056e+38
1.008126e+39
1.509003e+39
2.847761e+39
3.002131e+39
5.851473e+38
1.784321e+38
1.842545e+38
6.076959e+38
2.914256e+39
1.779483e+39
1.568338e+38
1.613966e+37
1.864666e+38
4.373734e+37
5.620587e+38
1.480393e+39
5.111344e+37
2.062746e+39
4.454060e+39
1.601262e+39
5.052788e+36
5.216589e+38
2.189813e+38
7.190640e+37
9.946815e+38
1.228287e+39
1.114005e+36
3.370053e+39
8.579259e+39
4.393515e+39
6.519300e+37
2.340478e+38
2.748127e+38
2.647524e+39
1.411351e+39
2.465465e+37
3.302342e+38
1.518637e+37
2.207467e+37
2.214908e+39
1.045322e+40
8.818499e+39
8.048187e+38
5.835313e+38
3.420566e+38
4.968394e+38
2.563645e+39
2.162536e+39
3.283336e+38
3.721587e+38
2.369065e+39
2.918233e+39
1.341455e+39
3.720041e+38
3.684720e+38
5.624210e+38
1.405154e+38
1.097889e+37
2.750601e+38
4.857636e+39
8.301480e+39
1.250781e+39
1.796350e+39
2.396567e+39
9.323219e+37
9.527900e+38
7.945607e+38
6.994826e+39
3.540925e+39
3.172757e+37
6.107011e+37
2.353743e+39
2.500199e+39
1.295853e+38
1.847256e+36
1.109267e+39
1.987547e+39
1.243595e+37
2.048228e+39
3.243100e+39
1.722968e+39
6.860554e+38
3.524902e+38
5.863434e+38
2.304470e+39
4.447049e+39
1.858017e+39
9.968385e+37
9.393924e+38
9.100685e+35
4.934164e+38
3.307582e+38
4.974107e+39
2.673138e+39
5.026193e+38
2.496627e+39
6.448992e+37
4.881989e+39
3.109397e+39
1.654961e+35
1.349111e+38
6.527519e+38
2.018040e+39
3.094671e+38
2.487510e+38
5.797190e+38
7.637273e+38
1.789595e+39
1.803221e+39
1.903873e+38
3.642786e+37
2.605758e+38
2.437801e+39
2.116132e+39
3.755099e+38
2.451148e+38
8.200452e+38
1.275511e+38
1.149089e+39
2.462725e+39
3.602155e+38
2.052722e+37
2.446868e+38
2.171451e+39
2.537047e+39
1.695944e+39
1.844623e+39
1.739987e+39
3.414284e+38
1.855502e+38
1.407061e+39
3.130464e+39
3.635484e+39
6.301952e+38
1.042528e+39
1.582143e+39
1.073468e+39
1.149724e+40
7.669182e+39
6.940849e+37
4.894270e+39
1.744645e+39
1.273302e+38
1.375651e+37
2.949431e+39
6.646858e+39
1.975220e+39
3.309282e+36
3.467394e+38
5.195031e+39
6.389880e+39
2.008368e+38
2.970223e+39
2.255231e+39
1.656287e+38
8.417392e+38
1.311849e+39
1.009424e+40
5.380520e+39
1.499526e+38
1.887931e+39
1.256422e+38
3.757917e+39
1.165321e+39
4.719845e+38
4.844416e+38
5.889423e+38
1.630850e+39
1.098174e+36
2.239468e+39
4.953398e+39
6.182030e+39
5.609232e+39
1.336462e+39
8.406025e+38
4.194409e+39
1.127015e+39
7.009412e+38
2.365576e+39
3.505165e+38
4.224624e+38
1.077316e+39
5.763157e+38
2.513096e+38
1.269071e+38
3.308893e+34
2.103192e+38
9.930584e+37
4.299868e+38
2.027253e+39
3.667829e+38
2.500588e+39
9.267304e+39
5.031244e+39
7.185370e+37
3.516357e+38
1.229309e+37
6.384724e+38
2.209385e+38
2.279024e+37
4.926537e+37
9.909788e+36
2.561910e+38
9.075893e+38
7.581185e+38
1.306136e+38
3.059542e+39
1.848895e+39
4.146557e+38
2.557747e+39
1.539266e+34
5.232884e+39
8.129255e+39
3.729290e+39
1.426216e+39
5.387076e+38
2.580581e+38
4.457345e+39
5.110256e+39
3.058133e+38
1.196399e+39
7.897351e+38
4.913199e+38
3.551768e+39
3.213523e+39
1.318477e+39
1.220184e+39
3.436391e+39
5.280858e+39
1.215805e+39
2.896843e+39
1.871507e+40
2.287162e+40
7.472165e+39
1.274169e+38
5.901802e+39
4.003303e+39
7.598910e+38
1.670201e+40
2.423036e+40
8.395384e+39
8.247365e+37
1.067248e+39
3.209663e+39
9.568309e+39
1.443765e+40
5.170364e+39
3.617072e+38
6.013821e+39
5.776500e+39
9.263554e+38
2.702526e+39
2.070749e+40
2.665177e+40
3.733773e+39
7.903948e+39
3.026507e+40
3.118244e+40
2.034181e+40
5.214011e+39
2.236012e+39
2.071018e+40
1.463010e+40
5.897706e+36
1.278978e+40
2.154116e+40
1.389496e+40
1.703167e+39
5.067297e+39
2.527212e+40
2.497656e+40
7.572230e+39
1.857171e+38
1.437069e+39
5.641688e+39
5.367971e+39
2.480699e+37
8.565173e+39
2.122454e+40
1.369778e+40
2.282558e+38
1.374839e+40
3.775770e+40
2.105487e+40
4.198358e+38
1.980231e+39
2.777834e+38
2.623141e+37
3.927171e+39
6.399788e+39
7.529494e+38
2.345181e+40
2.204883e+40
1.583563e+39
1.792226e+39
4.914870e+39
1.061821e+40
1.536750e+40
3.352130e+39
4.043105e+39
1.309362e+40
3.497590e+39
1.631690e+38
2.610340e+39
1.014638e+40
2.532379e+40
1.566009e+40
1.118537e+39
3.261795e+40
3.209242e+40
5.222901e+39
2.160989e+36
5.754980e+37
3.288782e+38
2.804359e+39
1.484588e+39
4.003122e+39
3.066196e+40
3.552479e+40
6.536465e+39
5.644806e+39
3.425869e+40
3.887282e+40
1.494116e+40
2.866158e+38
3.526072e+39
6.656931e+39
3.004897e+39
1.468583e+38
1.065879e+40
2.838298e+40
2.054703e+40
6.515214e+38
9.091423e+39
1.578466e+40
5.230294e+39
2.502308e+38
1.000833e+38
2.133031e+39
1.117821e+40
1.363336e+40
3.966358e+38
1.552648e+40
3.634003e+40
1.688709e+40
1.452431e+38
5.072309e+39
8.632068e+39
6.299148e+39
2.964172e+39
3.776465e+38
6.914204e+38
4.100181e+39
3.615242e+39
2.772256e+37
1.171008e+40
3.369360e+40
2.986800e+40
6.427241e+39
7.520162e+38
7.779518e+39
1.077411e+40
1.173835e+40
9.080840e+39
7.032074e+38
5.703604e+39
1.167152e+40
6.634723e+37
2.187507e+40
4.891662e+40
2.564253e+40
6.245923e+38
1.109933e+40
3.398162e+40
3.218556e+40
7.454253e+39
1.003565e+39
8.163815e+39
6.938304e+39
5.072213e+39
4.007809e+39
3.535336e+37
2.017229e+40
4.723960e+40
1.330042e+40
9.386860e+39
5.222923e+40
3.446542e+40
2.774742e+39
2.138330e+39
7.075559e+39
9.760524e+39
8.758661e+39
1.118387e+39
6.176616e+39
2.873387e+40
2.444457e+40
1.134802e+39
1.075671e+40
2.056525e+40
5.395048e+39
3.218551e+37
1.089605e+38
4.992669e+38
1.381676e+38
6.178478e+38
4.022466e+37
1.289621e+40
3.148636e+40
1.218029e+40
4.859927e+38
9.566097e+39
9.067444e+39
6.330537e+39
5.970809e+39
2.655766e+39
8.566726e+37
3.651687e+39
4.296496e+39
7.033967e+38
2.774968e+39
2.498324e+40
4.543406e+40
1.587130e+40
5.278075e+39
4.823670e+40
4.134054e+40
7.760320e+39
1.353603e+36
1.723556e+39
5.934986e+39
8.092676e+39
4.981688e+38
9.629221e+39
2.708205e+40
1.713100e+40
3.074732e+39
6.027103e+37
5.263784e+39
1.999742e+40
2.164904e+40
1.848762e+39
8.952301e+39
1.723104e+40
1.062683e+39
1.116207e+40
3.407263e+40
3.635209e+40
2.042378e+40
1.264102e+39
1.170342e+40
3.669960e+40
2.107927e+40
1.641591e+39
3.453178e+37
1.751374e+39
9.599437e+38
2.946668e+39
6.133181e+39
3.064477e+39
5.199529e+40
5.689668e+40
3.882997e+39
1.682595e+40
3.789102e+40
2.420178e+40
1.075441e+40
4.116529e+39
1.775342e+38
1.392498e+39
2.192813e+39
7.639998e+37
1.985001e+39
7.332274e+39
9.641517e+39
3.713187e+39
5.599236e+38
9.410594e+39
9.050319e+39
9.460638e+38
5.715087e+38
1.218701e+39
1.039786e+39
1.007046e+39
1.495420e+37
8.662355e+39
3.096438e+40
3.057626e+40
7.780051e+39
3.733455e+38
1.019384e+40
2.365230e+40
2.834196e+40
1.238010e+40
2.034219e+38
1.571334e+40
1.430365e+40
3.228788e+38
3.488367e+40
6.659320e+40
3.543872e+40
2.114053e+39
4.406428e+39
1.100842e+40
8.447119e+39
3.026074e+39
3.295137e+30
3.035673e+39
4.876266e+39
8.797205e+38
1.387367e+39
1.254085e+40
3.813557e+40
5.589667e+40
1.934936e+40
7.504549e+39
6.676463e+40
4.856870e+40
3.186701e+39
4.955754e+38
1.008925e+39
5.147425e+39
2.104320e+38
1.293252e+39
4.469692e+38
1.218489e+40
9.433311e+39
1.949127e+38
1.152457e+40
1.767698e+40
2.048320e+40
2.707099e+40
1.863827e+40
1.858917e+38
1.796425e+40
3.179692e+40
5.544122e+39
8.073800e+39
3.339915e+40
2.097680e+40
6.371054e+38
5.502410e+39
7.997004e+39
2.146272e+39
4.974878e+38
2.154034e+39
3.289013e+39
1.847036e+37
6.345047e+39
1.393932e+39
1.946441e+40
7.925129e+40
4.668237e+40
2.809068e+38
4.544563e+40
6.406461e+40
3.990674e+40
2.060079e+40
4.825502e+39
2.494311e+39
1.849782e+40
9.740514e+39
3.050151e+37
1.652932e+39
4.467437e+37
6.345534e+38
3.701446e+38
5.562506e+38
4.244720e+39
1.837440e+40
5.054521e+39
5.363537e+39
2.461439e+40
2.263366e+40
1.772754e+40
1.666601e+40
4.965131e+39
3.856823e+39
2.877442e+40
2.461782e+40
2.851009e+39
2.058441e+39
1.020652e+40
1.609972e+40
1.121351e+40
1.745184e+38
8.027800e+39
8.232194e+39
1.795213e+38
8.490997e+39
3.652269e+39
8.327527e+37
5.938389e+38
9.043007e+38
1.312039e+40
5.094899e+40
4.909253e+40
7.070470e+39
3.273157e+39
1.537092e+40
2.857376e+40
4.784070e+40
3.313042e+40
1.181341e+38
2.543132e+40
2.435657e+40
4.510781e+36
1.848410e+40
1.879472e+40
3.368777e+39
2.677858e+38
5.297405e+39
1.378605e+40
1.320598e+40
1.724593e+39
2.417890e+39
5.895658e+39
1.283268e+39
5.654158e+37
6.497378e+38
5.703802e+39
3.612574e+40
7.063189e+40
2.583906e+40
7.529542e+39
6.080071e+40
2.906496e+40
1.324341e+38
4.872523e+39
4.335158e+38
8.283263e+39
2.990843e+39
2.242064e+38
4.489036e+39
2.022194e+40
1.537929e+40
2.490149e+38
8.745805e+39
2.614100e+40
4.142321e+40
4.527121e+40
2.616064e+40
4.385967e+39
3.569279e+38
4.709696e+39
1.032845e+40
1.663635e+40
1.896296e+40
1.472029e+40
6.093273e+39
1.822476e+38
2.353688e+40
6.490222e+40
4.068877e+40
3.740290e+37
2.887014e+40
4.057061e+40
2.116334e+40
1.676944e+40
2.421259e+40
1.457850e+40
8.014008e+37
3.425728e+39
5.755495e+36
6.556479e+39
1.764631e+39
1.313578e+40
5.424259e+40
4.361517e+40
1.090683e+40
7.224269e+38
8.494587e+38
1.914233e+40
7.699385e+40
9.313403e+40
2.031136e+40
9.880738e+39
5.484356e+40
4.267318e+40
1.401399e+40
3.939145e+39
1.838248e+38
7.598985e+39
3.893238e+40
4.394288e+40
1.127286e+40
8.032036e+33
1.877958e+32
8.349715e+39
3.276086e+40
3.934030e+40
1.338691e+40
3.639725e+39
6.261205e+40
1.003984e+41
4.315950e+40
1.692268e+39
1.364292e+39
1.612062e+39
6.944200e+39
2.888255e+40
2.942191e+40
1.083709e+39
1.567108e+40
2.541611e+40
4.867942e+39
1.939357e+39
1.383754e+40
2.053098e+40
1.239138e+40
4.381213e+38
4.156991e+39
3.453363e+39
1.062870e+39
1.201010e+40
1.351983e+40
1.128398e+40
1.400649e+40
5.981212e+39
5.558202e+39
4.583830e+40
2.691285e+40
1.017496e+39
1.957744e+40
5.382426e+39
3.388105e+37
3.806819e+39
9.491217e+39
1.806011e+39
4.837697e+40
3.526733e+40
3.488556e+38
1.868520e+40
8.092086e+39
5.318369e+39
3.350037e+40
5.752376e+40
8.407152e+39
1.434053e+40
2.826638e+40
2.785552e+39
5.135266e+39
1.989746e+40
2.896054e+40
1.152053e+40
6.657645e+39
5.949869e+40
3.149648e+40
4.919795e+39
5.675971e+40
4.118340e+40
9.713686e+39
2.888857e+39
4.401092e+37
1.517992e+40
6.170576e+40
5.743247e+40
1.618493e+40
9.313476e+38
1.652814e+39
2.476763e+40
7.688086e+40
6.324590e+40
3.838723e+39
8.932993e+39
2.184060e+39
1.532549e+40
3.955127e+40
1.032643e+40
3.102324e+39
2.617784e+40
4.368343e+40
4.067242e+40
1.065589e+40
4.157333e+39
3.230761e+40
2.860739e+40
1.410148e+40
1.848608e+40
2.649172e+40
3.433853e+39
2.367508e+40
7.616348e+40
3.951598e+40
2.036128e+39
6.666345e+38
1.248952e+39
9.016394e+39
3.589846e+40
3.860828e+40
8.100786e+39
1.508672e+38
1.128731e+38
5.063931e+39
2.095068e+40
1.764333e+40
2.656688e+36
4.052949e+40
9.198902e+40
3.807846e+40
5.363018e+38
2.261368e+40
2.165607e+40
2.155081e+40
4.033221e+40
3.553222e+40
1.381722e+39
1.688938e+40
2.729849e+40
8.080521e+39
8.883875e+37
3.215775e+39
1.850697e+40
3.072430e+40
8.954971e+39
3.530915e+39
1.902905e+40
4.483337e+39
7.373761e+39
4.542341e+40
6.289107e+40
2.873407e+40
1.521323e+38
3.354884e+40
4.041236e+40
3.211870e+39
8.433139e+39
1.118035e+40
1.101472e+39
3.627354e+38
7.566309e+39
1.202328e+40
1.070314e+37
2.026849e+40
3.288743e+40
9.192200e+39
9.594649e+37
3.937264e+39
6.411863e+39
6.644623e+39
1.754275e+39
1.507497e+39
1.068736e+40
1.523563e+40
1.982894e+40
2.755701e+40
1.447793e+40
1.064556e+39
2.865998e+40
1.798745e+40
2.502946e+39
4.137919e+40
3.948006e+40
3.568609e+39
1.263032e+40
4.431154e+40
2.340554e+40
1.479843e+39
4.330574e+40
4.849444e+40
1.529125e+40
2.995448e+39
3.005112e+38
8.206843e+39
6.301458e+40
9.319314e+40
3.530144e+40
2.461702e+38
1.065801e+40
3.514794e+40
6.186716e+40
4.521700e+40
5.303934e+39
7.886188e+38
8.025489e+37
8.714656e+39
1.099550e+40
4.123342e+39
3.399262e+38
8.095238e+39
7.166973e+40
1.085977e+41
1.811136e+40
1.970556e+40
4.381065e+40
8.069689e+39
1.667441e+39
1.467725e+40
1.249963e+40
6.547623e+39
6.026839e+40
4.328893e+40
9.222608e+39
7.594522e+39
1.127090e+40
1.562159e+38
4.223891e+40
6.748313e+40
1.961486e+40
4.716989e+38
3.846665e+38
5.800172e+39
1.481977e+40
2.601390e+40
2.608876e+40
6.006247e+38
5.587556e+40
1.777473e+41
1.296454e+41
1.529435e+40
5.747016e+39
2.133950e+40
2.442529e+40
2.451640e+40
1.001025e+40
6.859453e+38
1.463971e+40
1.052841e+40
1.151241e+39
1.382934e+38
2.346580e+36
9.873834e+39
4.771020e+40
3.224155e+40
6.713311e+38
2.723826e+40
4.968402e+39
1.675524e+40
4.420069e+40
2.132496e+40
2.610342e+39
2.274284e+39
3.077083e+40
5.462792e+40
1.079974e+40
1.022062e+40
1.848899e+40
2.361483e+37
3.714166e+39
6.531690e+39
3.690329e+40
3.324253e+39
3.336021e+40
5.588788e+40
4.397569e+39
1.252138e+40
2.750538e+40
2.928117e+40
4.236708e+40
4.501545e+40
1.582664e+40
1.151458e+38
6.532033e+38
4.654036e+38
5.159855e+39
5.966030e+39
2.274312e+39
5.679805e+37
7.077459e+39
1.927115e+40
1.358354e+40
8.430206e+38
3.165852e+39
1.196766e+40
2.188223e+40
2.144145e+40
1.252709e+39
2.596969e+40
7.958332e+40
4.430375e+40
1.048399e+39
6.974761e+39
1.282976e+40
2.672457e+40
6.461172e+40
6.825383e+40
1.268683e+40
5.769153e+39
1.802344e+40
1.277468e+39
1.006653e+40
2.300846e+40
6.568110e+39
4.822870e+39
4.241756e+40
5.360175e+40
1.574859e+40
9.206975e+38
1.800277e+40
2.465926e+40
1.801137e+40
9.212826e+39
1.696202e+39
1.444684e+39
1.698827e+40
3.769923e+40
2.915950e+40
1.942498e+39
1.137294e+40
2.738308e+40
1.332397e+40
3.963768e+39
8.111571e+39
1.919902e+40
1.153445e+40
5.255010e+38
1.612665e+38
1.047281e+40
1.954423e+40
1.353403e+38
6.981940e+40
1.447857e+41
6.144683e+40
1.042650e+37
3.014332e+40
4.441104e+40
4.051627e+40
4.224980e+40
3.206372e+40
3.508618e+39
1.565854e+40
6.727417e+40
6.242203e+40
1.325420e+40
1.201488e+39
1.174698e+40
1.116453e+40
5.105685e+39
4.622412e+38
1.629189e+39
3.841683e+39
4.355869e+38
3.019762e+40
6.373129e+40
2.074151e+40
1.031109e+40
9.446333e+40
1.118564e+41
4.166819e+40
3.007794e+39
3.604358e+38
3.162251e+39
1.573012e+40
3.051253e+40
7.376650e+39
1.265015e+40
4.584031e+40
9.121523e+39
9.214373e+39
1.889587e+40
1.847300e+39
4.744210e+38
2.035883e+40
4.918439e+40
1.089768e+40
9.077854e+39
2.349552e+40
1.201533e+39
1.037658e+40
1.942170e+40
9.558083e+39
2.798538e+38
9.784368e+39
3.567053e+40
1.971053e+40
1.834240e+39
3.529163e+40
2.653068e+40
2.842175e+39
4.707340e+38
4.188183e+39
1.985275e+39
5.251000e+39
2.459026e+40
1.193550e+40
3.150534e+38
1.733434e+40
4.538495e+40
6.448630e+40
3.809885e+40
6.273236e+38
1.794523e+40
2.086189e+40
3.801422e+38
1.369728e+40
3.422184e+40
2.872524e+40
2.985068e+39
1.621893e+40
4.934277e+40
9.207303e+39
2.075315e+40
5.901930e+40
2.086324e+40
4.020466e+39
1.868073e+40
3.779129e+40
1.099808e+39
5.441927e+40
9.604137e+40
1.856408e+40
3.205871e+39
9.956773e+39
6.280335e+39
1.392505e+40
2.692815e+40
1.432388e+40
1.499202e+39
1.659281e+39
1.162932e+40
1.399956e+40
1.684771e+39
1.780155e+39
7.702707e+39
1.667679e+40
2.664703e+40
1.570907e+40
1.132453e+37
1.617044e+40
4.376812e+40
6.188642e+40
5.311790e+40
1.005489e+40
1.322591e+40
7.393104e+40
7.387207e+40
3.347428e+40
1.406774e+40
3.823531e+39
5.567861e+39
6.277891e+40
9.055181e+40
2.769376e+40
9.503629e+36
1.235348e+38
1.104648e+40
3.933617e+40
3.657373e+40
1.383870e+40
1.585532e+37
3.290239e+40
1.084957e+41
8.870310e+40
6.723935e+39
1.491501e+40
2.557717e+40
1.199203e+40
1.549500e+40
3.176714e+40
1.302354e+40
7.323786e+39
5.612049e+40
3.538963e+40
3.010920e+36
2.076421e+40
2.332419e+40
3.690216e+39
1.424681e+39
4.279716e+39
8.304994e+37
4.156418e+39
6.644772e+39
4.434217e+39
1.058551e+40
2.753320e+40
1.301108e+40
6.882672e+39
5.361153e+40
2.545184e+40
7.629684e+38
1.052729e+40
2.608456e+39
1.914248e+39
1.170353e+40
5.588341e+39
1.092741e+40
4.997318e+40
1.630815e+40
1.972228e+39
7.663099e+39
1.936486e+39
8.401789e+39
4.666161e+40
4.880960e+40
2.253259e+39
1.592849e+40
1.968065e+40
1.432683e+39
4.048488e+39
1.678175e+40
2.272188e+40
4.804135e+39
1.235354e+40
5.661952e+40
2.967450e+40
2.475742e+38
2.077545e+40
2.730392e+40
2.927808e+40
3.341069e+40
1.164549e+40
3.910147e+39
3.309734e+40
2.361514e+40
5.734834e+39
5.223956e+39
8.558737e+39
3.414791e+38
1.091942e+40
1.414548e+40
1.859455e+38
2.137365e+39
9.940141e+38
2.370741e+40
4.873174e+40
5.575196e+40
3.196933e+40
9.687555e+38
9.686608e+40
1.459858e+41
2.283346e+40
5.027253e+39
8.504249e+35
2.671340e+40
1.674461e+39
7.058611e+40
8.173018e+40
4.672736e+39
1.089358e+41
3.589146e+40
4.294306e+39
5.143401e+39
1.231881e+39
4.511098e+39
8.026089e+40
6.481507e+40
3.607563e+38
2.603121e+40
4.116034e+38
1.706366e+40
6.870802e+39
8.306962e+37
9.510802e+39
3.294225e+40
4.102954e+38
6.072713e+40
6.500913e+40
1.222118e+39
7.031496e+40
3.672230e+40
5.404375e+36
1.126735e+39
3.300861e+39
4.451181e+38
3.274896e+40
9.934774e+40
5.316967e+40
2.425833e+39
4.781815e+39
2.495895e+40
8.783980e+40
1.443458e+41
6.125340e+40
3.206667e+38
1.722779e+40
3.768589e+38
4.584566e+40
3.746582e+40
3.489189e+38
3.566079e+40
3.401716e+40
8.314000e+39
1.352741e+39
1.659786e+38
4.549488e+39
3.635166e+40
5.028466e+40
1.073050e+40
3.287053e+39
1.549031e+40
1.793100e+40
3.679474e+40
5.787879e+40
1.366788e+40
2.165614e+40
8.616727e+40
3.678638e+40
1.180426e+39
2.081228e+39
2.435689e+40
2.209175e+40
5.388464e+38
7.211515e+37
1.443344e+40
3.690604e+40
1.975854e+38
7.718017e+40
1.342495e+41
2.766338e+40
4.776619e+39
1.030334e+40
6.047327e+38
6.755892e+39
6.404615e+40
6.209371e+40
1.032287e+39
8.671283e+40
5.815131e+40
1.056299e+37
5.102980e+39
2.575440e+39
4.717012e+39
2.065212e+40
1.023458e+41
4.758293e+40
1.585349e+32
3.544686e+38
2.826019e+40
8.221043e+40
3.803334e+40
4.966305e+38
9.506980e+39
3.890114e+40
9.535926e+40
9.856476e+40
1.144129e+40
3.605998e+40
1.062131e+41
5.032929e+40
4.606165e+39
2.358731e+39
1.482709e+40
8.375668e+39
8.655069e+39
5.723750e+40
2.474090e+40
6.154545e+39
4.714323e+40
2.252218e+40
2.922601e+38
9.244732e+38
1.599350e+39
1.748443e+40
6.625311e+40
5.749867e+40
3.296117e+39
7.875479e+39
2.583939e+39
4.044383e+39
6.822940e+39
1.433285e+39
3.624772e+39
8.811681e+39
9.091024e+38
5.533626e+40
4.317461e+40
1.509396e+40
1.535546e+41
8.639733e+40
1.018780e+39
3.470409e+38
8.917973e+39
3.952227e+38
7.064306e+40
1.487367e+41
3.079002e+40
3.430816e+39
4.562312e+39
2.965209e+39
6.599046e+40
2.094491e+41
9.250818e+40
5.550008e+39
4.040611e+40
2.440969e+39
8.122003e+40
3.546103e+40
6.288515e+39
3.943985e+40
1.873067e+40
5.613609e+39
5.290376e+39
7.516706e+38
1.065025e+40
4.550898e+40
3.850279e+40
5.800800e+39
1.621697e+39
9.930371e+39
2.091708e+40
4.505409e+40
5.371545e+40
9.990194e+39
1.819054e+40
7.281786e+40
3.836919e+40
3.125229e+39
2.250091e+39
1.993011e+40
2.182619e+40
1.223328e+39
1.006935e+38
1.165550e+40
3.809003e+40
9.815573e+38
7.411609e+40
1.417896e+41
2.941413e+40
5.481321e+39
1.033057e+40
3.379639e+38
7.013053e+39
6.857102e+40
6.217307e+40
1.798553e+39
9.052682e+40
5.742314e+40
8.660168e+36
4.865163e+39
2.184871e+39
3.871305e+39
2.010724e+40
9.739184e+40
4.697534e+40
3.354811e+37
2.337166e+38
2.852159e+40
8.489464e+40
4.000439e+40
3.361289e+38
1.134105e+40
3.945002e+40
9.158933e+40
9.754815e+40
1.313562e+40
3.092272e+40
8.878509e+40
2.744334e+40
6.189657e+38
3.350365e+39
1.117950e+39
2.692268e+39
4.194436e+39
2.403628e+40
4.643106e+39
1.444012e+40
4.470330e+40
2.105662e+40
1.872360e+39
5.504894e+37
1.763161e+35
7.159537e+38
1.942160e+36
1.883615e+40
7.003764e+40
3.389556e+40
5.888551e+39
6.209504e+40
2.928927e+40
1.700707e+36
1.137075e+39
7.165867e+38
2.378030e+38
2.331562e+40
2.327393e+40
5.315717e+39
9.002220e+40
8.872008e+40
1.722441e+40
3.475122e+38
1.626323e+37
2.860375e+39
4.200632e+40
9.541697e+40
6.313452e+40
1.719905e+40
1.416410e+40
4.298240e+40
6.003316e+40
3.796093e+40
2.905058e+40
2.781490e+40
5.405080e+38
1.992285e+41
5.389457e+41
2.535345e+41
6.176312e+39
2.157296e+41
1.967039e+41
1.031848e+41
1.001869e+41
4.086354e+40
5.109756e+40
4.616552e+41
5.247311e+41
1.431221e+41
2.677852e+37
5.556218e+40
2.130103e+41
4.270215e+41
3.209232e+41
1.657032e+40
1.323150e+41
3.388336e+41
2.570616e+41
1.070663e+41
2.162375e+40
5.280983e+39
1.210723e+41
3.064927e+41
2.523616e+41
2.238680e+40
8.770099e+40
2.950367e+41
2.698266e+41
1.656510e+41
1.157619e+41
5.224202e+40
3.848986e+38
7.381946e+40
1.245769e+41
1.011217e+41
9.632739e+40
6.065363e+40
5.645541e+39
3.010445e+41
5.566144e+41
1.899408e+41
9.820364e+39
1.762940e+41
1.972507e+41
1.624582e+41
1.568476e+41
6.476632e+40
1.358378e+40
2.465266e+41
3.551282e+41
1.655513e+41
1.903099e+40
1.167059e+40
1.427586e+41
3.711089e+41
3.256929e+41
2.827845e+40
1.177386e+41
3.536547e+41
2.375435e+41
5.174499e+40
4.925330e+38
1.870733e+40
1.220864e+41
3.045445e+41
2.595868e+41
1.422528e+40
1.387530e+41
3.541371e+41
2.222312e+41
5.806799e+40
3.947862e+39
2.609037e+40
2.217482e+41
3.828186e+41
1.543331e+41
8.197055e+38
9.626037e+40
1.713052e+41
2.790843e+41
4.099155e+41
2.732332e+41
2.515284e+40
2.478130e+40
5.852683e+40
7.373529e+40
1.980679e+41
3.632512e+41
1.670268e+41
2.439228e+40
4.641242e+41
5.646828e+41
1.489143e+41
9.272351e+38
4.782096e+40
7.458298e+40
1.455586e+41
1.948094e+41
4.293738e+40
5.354279e+40
2.136595e+41
1.064092e+41
1.638419e+40
8.189396e+39
5.232942e+38
1.743906e+41
5.499588e+41
2.706471e+41
7.352606e+39
2.206224e+41
1.870508e+41
1.047564e+41
1.117049e+41
3.927421e+40
6.127921e+40
4.563741e+41
4.922466e+41
1.460397e+41
6.281261e+38
6.173786e+40
2.407101e+41
4.119008e+41
2.815150e+41
1.787994e+40
1.084586e+41
3.446805e+41
3.005964e+41
1.182973e+41
2.257549e+40
2.854656e+38
6.808522e+40
2.987191e+41
4.090321e+41
1.779167e+41
1.260932e+40
3.987618e+38
1.811721e+39
4.303125e+40
2.280404e+41
2.529713e+41
1.322403e+40
1.652171e+41
4.406229e+41
3.159166e+41
8.355781e+40
2.129711e+38
6.042890e+40
2.572041e+41
4.463229e+41
3.081637e+41
1.930310e+40
1.158807e+41
3.299208e+41
2.649418e+41
1.281034e+41
3.786753e+40
7.872721e+39
2.208442e+41
4.160482e+41
1.873464e+41
5.056148e+39
2.382774e+40
1.030664e+41
3.298282e+41
4.522908e+41
8.719364e+40
1.073468e+41
3.673487e+41
1.552223e+41
1.327556e+40
1.294717e+39
6.834367e+39
1.848599e+41
4.900185e+41
2.613430e+41
4.111355e+38
1.928917e+41
2.687456e+41
1.606340e+41
7.082728e+40
1.003985e+40
3.274442e+40
2.661398e+41
4.800186e+41
3.293002e+41
8.242040e+40
9.193190e+39
2.625298e+39
4.719983e+39
1.387484e+41
3.559472e+41
1.897849e+41
1.594873e+38
1.453409e+41
2.618845e+41
2.738691e+41
2.218484e+41
6.191156e+40
1.954770e+40
2.310766e+41
3.448119e+41
2.091175e+41
2.967755e+40
3.089032e+40
1.934457e+41
2.338092e+41
1.048220e+41
7.478806e+39
2.265283e+40
1.201060e+41
1.697683e+41
8.867088e+40
8.192771e+39
1.696896e+40
1.544455e+41
3.821811e+41
2.678166e+41
2.275370e+37
2.954042e+41
4.141931e+41
1.607621e+41
4.780499e+40
1.480712e+40
3.267317e+40
3.840967e+41
5.312870e+41
1.348492e+41
2.484962e+39
4.347416e+40
8.515700e+40
2.295550e+41
2.678802e+41
2.331213e+40
1.281534e+41
3.199314e+41
2.044876e+41
1.235501e+41
1.457206e+41
1.104980e+41
7.241775e+39
3.588590e+40
1.002302e+41
1.160913e+41
1.189207e+41
5.676512e+40
8.403126e+39
2.388808e+41
3.524236e+41
7.143162e+40
3.687379e+40
1.567945e+41
1.167790e+41
1.054189e+41
1.627481e+41
7.024074e+40
5.817807e+40
5.431581e+41
5.762118e+41
1.348009e+41
1.883829e+38
4.493273e+40
1.543549e+41
3.419202e+41
2.928341e+41
2.606532e+40
8.287667e+40
2.623168e+41
2.529609e+41
1.532606e+41
4.371225e+40
3.429151e+39
1.081983e+41
2.170022e+41
1.534530e+41
1.498228e+40
4.719572e+40
1.799357e+41
1.539268e+41
5.433687e+40
7.886361e+39
9.168292e+39
1.667806e+41
4.288613e+41
2.612019e+41
6.021465e+37
1.895014e+41
2.909422e+41
2.084883e+41
1.763589e+41
1.458403e+41
3.741417e+40
5.563445e+39
5.503476e+40
8.193205e+40
1.385325e+41
2.153390e+41
1.041788e+41
2.157143e+40
4.153166e+41
5.303877e+41
1.005527e+41
3.810870e+40
1.661997e+41
1.398171e+41
1.698038e+41
2.865118e+41
1.558889e+41
1.660715e+40
3.874410e+41
4.338979e+41
1.205329e+41
4.838814e+39
9.806687e+39
1.056021e+41
2.847072e+41
1.951850e+41
3.059449e+39
7.424483e+40
1.132463e+41
8.461453e+40
7.882041e+40
3.339416e+40
1.949366e+40
2.989880e+41
5.523035e+41
3.287967e+41
1.854844e+40
9.134055e+40
2.511450e+41
1.957402e+41
9.101033e+40
2.756971e+40
5.491375e+39
1.869151e+41
4.064016e+41
2.182585e+41
7.694296e+39
4.160721e+40
1.540451e+41
3.423965e+41
4.108698e+41
1.406799e+41
1.864392e+37
6.933998e+39
1.365750e+39
7.178308e+39
2.535423e+41
4.883316e+41
1.067550e+41
7.498191e+40
3.195475e+41
2.158890e+41
6.207359e+40
4.944092e+39
1.798844e+40
1.345706e+41
2.222026e+41
9.928107e+40
1.688164e+39
1.386343e+41
2.360865e+41
1.625079e+41
8.097853e+40
2.191667e+40
2.646498e+40
3.721360e+41
6.511806e+41
2.408655e+41
2.564520e+39
1.274589e+41
1.753253e+41
2.688073e+41
3.656579e+41
1.169625e+41
5.349012e+40
3.896588e+41
3.289056e+41
1.143328e+41
3.174750e+40
8.392320e+37
1.043530e+41
2.823985e+41
1.564647e+41
1.971285e+39
5.341087e+40
1.201868e+41
1.406278e+41
9.906801e+40
1.368594e+40
3.065482e+40
2.013460e+41
3.436680e+41
2.164707e+41
4.130308e+39
1.520886e+41
3.429123e+41
2.451605e+41
1.389214e+41
1.148709e+41
5.469540e+40
8.835054e+38
7.035364e+40
1.078989e+41
1.256499e+41
2.002165e+41
1.497182e+41
1.056181e+39
2.741436e+41
3.029369e+41
1.945717e+39
2.208833e+41
3.089597e+41
1.390172e+41
9.218995e+40
1.063067e+41
8.548819e+39
1.960372e+41
7.189634e+41
6.025017e+41
1.681234e+41
1.935375e+40
5.221073e+38
1.834229e+40
9.894869e+40
5.747722e+40
2.524735e+40
3.266466e+41
5.022418e+41
3.979091e+41
2.762465e+41
1.319862e+41
1.312289e+34
2.240897e+41
5.349268e+41
3.557339e+41
6.689419e+40
4.921245e+38
3.232352e+39
1.798968e+40
5.003507e+40
1.000354e+40
1.155910e+41
6.417101e+41
8.016446e+41
3.961978e+41
1.101570e+41
2.102697e+40
7.954206e+39
1.555844e+41
2.291148e+41
3.263787e+40
3.939885e+40
8.643275e+40
4.249179e+40
9.328957e+40
3.704713e+41
4.783846e+41
6.966618e+40
1.841658e+41
7.814829e+41
7.411029e+41
2.774644e+41
3.293630e+40
1.080425e+39
2.264647e+40
3.965826e+40
1.093669e+40
2.962986e+40
2.373579e+41
4.129029e+41
3.964891e+41
3.267883e+41
1.934430e+41
7.031827e+39
1.513665e+41
3.245407e+41
7.545063e+40
1.996560e+40
6.762889e+40
2.510272e+40
2.821068e+40
6.901594e+40
1.087696e+40
1.293450e+41
5.734403e+41
6.487927e+41
3.730844e+41
1.364240e+41
8.903359e+39
4.169466e+40
1.154464e+41
2.632195e+40
4.035506e+40
2.365468e+41
3.386433e+41
3.017963e+41
2.002275e+41
6.262940e+40
7.411401e+39
2.736980e+41
7.846255e+41
8.901296e+41
4.185017e+41
6.462164e+40
5.645211e+39
9.505473e+39
2.181119e+39
2.581295e+40
6.041938e+40
1.516493e+39
2.856996e+41
7.415078e+41
7.304625e+41
4.107746e+41
1.330210e+41
3.166816e+39
5.664363e+40
1.441967e+41
7.618857e+40
4.529455e+37
6.343917e+40
1.518762e+41
1.590069e+41
7.593706e+40
3.858391e+38
1.958358e+41
5.870191e+41
5.657819e+41
1.994566e+41
2.147897e+40
5.525943e+37
1.306819e+40
8.762486e+40
8.158258e+40
1.369356e+40
3.876068e+41
6.008113e+41
3.485694e+41
1.967564e+41
1.482395e+41
6.848544e+39
2.339559e+41
6.586002e+41
3.490878e+41
3.054128e+40
2.724328e+38
6.403545e+38
1.362096e+40
8.849960e+40
1.505961e+40
1.675811e+41
7.139879e+41
8.019614e+41
5.502836e+41
4.142636e+41
3.209459e+41
1.224357e+41
7.590196e+38
4.264449e+40
6.225861e+40
2.378085e+40
3.743962e+38
7.750326e+40
3.401613e+41
5.583625e+41
3.202777e+41
4.538104e+39
2.089073e+41
5.380302e+41
5.478592e+41
3.529633e+41
1.116411e+41
3.589828e+38
8.196238e+40
6.560630e+40
5.966892e+38
9.010573e+40
2.095353e+41
3.619281e+41
5.682317e+41
5.271661e+41
1.549604e+41
7.028776e+39
1.751140e+41
2.058667e+41
5.377696e+40
4.447395e+39
5.566527e+40
5.011181e+40
3.244596e+40
3.824740e+40
8.980305e+39
8.472222e+40
5.567804e+41
7.587716e+41
3.808430e+41
8.661272e+40
4.877839e+39
2.636305e+40
1.436630e+41
9.999588e+40
7.969418e+39
2.596997e+41
4.491173e+41
4.561337e+41
4.758429e+41
3.535397e+41
5.115644e+40
7.176832e+40
3.526062e+41
4.789869e+41
4.963645e+41
4.313071e+41
1.760964e+41
2.458655e+38
1.631700e+41
2.102622e+41
2.288902e+40
6.434348e+40
2.475453e+41
3.721546e+41
5.799050e+41
7.387159e+41
3.408017e+41
2.470962e+39
2.546960e+41
1.553608e+41
7.853658e+38
9.150098e+39
2.997335e+39
5.807630e+40
2.995599e+41
2.052959e+41
1.348174e+40
3.937641e+41
5.130044e+41
3.332184e+41
2.151497e+41
9.298196e+40
1.110736e+38
6.525115e+40
9.481121e+40
2.291166e+40
2.097761e+40
2.530839e+41
5.430871e+41
4.788120e+41
2.333136e+41
8.791453e+40
2.033380e+39
1.627170e+41
6.017175e+41
4.466813e+41
4.676886e+40
2.993805e+39
1.451251e+39
1.488249e+40
1.564690e+41
1.799639e+41
2.458231e+38
1.607598e+41
2.244374e+41
2.185913e+41
4.974621e+41
8.386113e+41
3.972194e+41
1.332798e+39
2.331742e+41
1.553805e+41
1.258466e+39
4.561834e+40
9.519675e+40
1.906433e+41
3.978570e+41
4.061930e+41
4.869501e+40
2.030037e+41
7.846753e+41
6.738052e+41
2.480229e+41
6.387369e+40
3.875521e+39
4.856268e+40
1.758443e+41
5.582709e+40
5.124212e+40
3.289633e+41
4.704539e+41
5.545244e+41
5.375688e+41
1.694264e+41
2.240934e+40
2.442436e+41
1.527467e+41
1.484488e+40
9.186964e+34
1.063622e+39
1.725718e+40
4.727775e+40
1.936709e+40
5.505454e+39
9.821439e+40
2.934867e+41
4.848003e+41
3.995426e+41
9.978361e+40
5.272869e+39
1.107731e+41
1.637321e+41
9.313605e+40
7.374751e+39
1.416638e+40
4.236880e+40
8.253231e+40
2.814011e+41
6.101420e+41
4.081027e+41
1.319026e+38
4.521173e+41
9.073600e+41
6.632450e+41
2.788050e+41
5.600912e+40
5.787123e+39
1.252906e+41
1.953642e+41
7.407355e+40
4.056406e+39
1.766971e+41
4.853589e+41
6.941721e+41
5.963370e+41
2.204524e+41
3.671170e+37
1.637677e+41
2.173630e+41
4.925263e+40
5.758206e+38
1.110842e+40
3.369530e+40
1.336217e+41
1.500731e+41
1.529162e+38
3.413266e+41
6.718358e+41
3.992046e+41
1.529572e+41
9.118326e+40
2.881341e+40
1.557514e+40
1.018624e+41
2.070598e+40
7.404206e+40
3.489322e+41
4.611138e+41
4.106462e+41
3.056439e+41
1.271207e+41
2.256453e+37
1.892800e+41
4.993118e+41
4.461818e+41
1.973994e+41
1.019457e+41
1.207786e+41
6.474392e+40
1.448571e+40
2.224027e+41
1.488330e+41
7.572201e+39
2.806494e+41
5.266614e+41
5.989223e+41
4.891289e+41
1.395774e+41
1.345584e+40
1.690031e+41
1.144065e+41
1.189581e+40
3.516000e+39
4.645758e+40
1.716239e+41
2.313700e+41
6.195927e+40
2.844424e+40
2.658737e+41
4.279259e+41
3.434786e+41
1.447571e+41
2.561867e+40
6.322123e+36
2.744272e+40
1.514513e+41
1.968043e+41
5.437520e+39
2.884771e+41
7.933640e+41
6.513234e+41
3.135284e+41
1.129303e+41
2.170912e+38
1.445277e+41
2.546495e+41
5.428753e+40
3.757389e+39
5.375110e+39
2.261374e+38
2.078054e+40
5.369103e+40
2.983455e+39
2.862129e+41
5.915387e+41
5.149183e+41
4.503559e+41
4.445915e+41
2.267934e+41
1.473557e+40
7.426377e+39
3.962747e+39
5.023292e+39
4.160257e+40
2.278515e+40
9.835497e+40
7.639459e+41
9.517751e+41
2.234177e+41
5.420273e+40
4.537941e+41
5.870946e+41
5.176856e+41
3.965770e+41
1.338727e+41
1.076229e+40
2.376315e+41
2.277136e+41
2.487272e+40
2.049933e+40
1.135501e+41
3.512475e+41
7.786444e+41
7.749299e+41
1.962305e+41
1.262187e+40
1.528883e+41
1.273435e+41
4.771003e+40
6.781828e+39
7.391698e+39
7.861588e+40
1.561782e+41
9.241683e+40
1.729575e+39
2.564630e+41
6.250089e+41
5.034357e+41
1.834564e+41
5.418292e+40
1.661245e+40
4.398296e+39
7.875029e+40
3.770608e+40
5.854389e+40
4.213408e+41
5.384970e+41
4.213070e+41
4.187833e+41
4.204801e+41
1.804227e+41
6.573275e+38
7.623225e+40
1.518295e+41
2.279806e+41
3.557323e+41
2.647951e+41
2.308198e+39
2.877245e+41
4.800802e+41
5.591023e+40
1.488125e+41
4.143462e+41
3.378581e+41
3.814031e+41
6.250349e+41
4.444995e+41
1.136077e+40
1.417734e+41
1.038998e+41
8.310361e+38
3.762600e+40
3.873740e+40
1.211916e+41
2.815682e+41
9.701101e+40
8.735251e+40
5.637245e+41
5.451167e+41
2.650796e+41
1.535343e+41
8.562044e+40
5.058503e+38
1.096347e+41
2.418545e+41
1.050989e+41
5.031501e+39
2.363403e+41
5.627511e+41
6.472322e+41
4.517598e+41
1.334823e+41
5.252696e+39
1.846274e+41
2.009282e+41
3.141500e+40
1.139400e+39
5.853307e+38
5.704942e+38
3.340481e+40
5.408649e+40
6.953640e+39
2.881679e+41
5.465714e+41
4.975628e+41
4.817048e+41
4.699585e+41
2.148005e+41
1.070200e+40
6.396848e+39
2.461370e+39
6.091876e+39
4.770964e+40
2.078637e+40
1.102981e+41
7.638820e+41
9.230209e+41
2.228904e+41
4.765185e+40
4.499645e+41
6.072338e+41
5.261340e+41
3.883153e+41
1.344125e+41
8.392876e+39
2.337865e+41
2.365784e+41
2.601133e+40
2.314398e+40
1.171573e+41
3.442064e+41
7.706017e+41
7.802248e+41
1.967905e+41
1.320879e+40
1.434885e+41
9.912589e+40
2.085149e+40
6.658819e+38
5.024673e+40
1.699301e+41
2.120712e+41
7.476073e+40
1.659905e+40
3.250413e+41
6.038978e+41
4.082432e+41
1.423131e+41
6.561668e+40
3.729313e+40
2.245660e+39
1.098810e+41
5.736154e+40
7.281046e+40
5.042537e+41
5.594180e+41
3.982384e+41
4.752836e+41
6.014741e+41
3.068381e+41
7.842308e+39
6.804898e+40
1.583045e+41
2.918777e+41
5.202453e+41
3.940991e+41
8.828226e+39
2.565829e+41
3.870674e+41
3.669745e+40
9.084680e+40
2.223206e+41
2.222938e+41
3.746240e+41
5.994001e+41
3.261925e+41
1.171325e+39
9.910511e+40
3.922836e+40
2.480309e+39
7.984102e+39
1.357526e+40
1.562409e+41
3.869754e+41
9.785981e+40
1.396831e+41
6.143679e+41
4.648606e+41
2.134752e+41
1.747041e+41
1.169361e+41
1.114804e+38
1.438070e+41
2.436889e+41
7.992450e+40
6.360368e+39
2.017883e+41
5.410846e+41
7.020349e+41
4.835699e+41
1.187353e+41
8.246605e+39
1.675934e+41
1.827154e+41
3.705201e+40
2.520272e+38
2.036747e+39
4.469344e+39
5.323156e+40
1.173683e+41
2.925731e+40
1.648414e+40
6.469559e+40
7.305465e+40
2.139490e+41
5.913685e+41
6.215870e+41
1.515812e+41
5.569350e+39
6.034698e+40
2.093083e+40
8.221380e+38
4.432302e+40
1.935166e+41
4.481357e+41
5.414855e+41
2.377403e+41
2.646935e+39
3.769485e+41
7.719812e+41
6.217647e+41
3.065813e+41
8.999664e+40
2.101306e+39
1.806198e+41
2.770734e+41
4.895412e+40
3.345030e+40
1.578620e+41
3.073566e+41
6.700938e+41
8.382588e+41
2.659170e+41
1.696131e+40
1.980968e+41
9.217541e+40
6.106780e+39
4.924518e+38
2.670579e+40
1.706205e+41
2.607306e+41
5.984365e+40
6.144074e+40
4.458999e+41
6.909405e+41
5.263034e+41
2.214741e+41
5.384153e+40
2.162396e+39
3.390744e+40
1.764710e+41
1.679979e+41
7.022325e+39
5.178725e+40
6.632874e+40
5.875286e+40
2.689983e+41
7.808668e+41
6.712516e+41
6.640176e+40
1.165934e+41
4.304411e+41
6.157623e+41
6.698949e+41
3.545366e+41
4.328009e+39
1.966435e+41
3.149384e+41
7.584366e+40
2.189871e+40
2.329540e+41
4.281699e+41
4.536989e+41
3.331725e+41
1.492275e+41
1.101830e+40
3.321389e+40
8.140957e+40
1.291068e+40
2.718061e+40
1.021721e+41
1.046330e+41
6.464612e+40
4.846942e+39
7.199683e+40
3.129497e+41
3.249966e+41
1.672490e+41
1.359947e+41
1.812892e+41
6.764922e+40
3.742926e+40
3.291050e+41
3.140939e+41
4.080723e+40
8.989651e+40
6.282465e+41
1.105211e+42
6.729104e+41
3.569860e+40
1.305443e+41
2.459143e+41
1.378015e+41
7.472191e+40
4.925161e+40
2.736458e+40
5.493204e+40
2.005003e+41
2.014054e+41
2.075974e+38
2.668833e+41
1.385426e+41
1.643020e+41
1.097574e+42
1.021989e+42
3.121911e+41
4.157713e+40
1.263270e+38
4.726956e+40
1.439812e+41
2.175724e+40
2.065268e+41
8.792387e+41
8.327019e+41
2.690879e+41
2.241714e+40
5.316687e+39
1.085849e+41
4.544199e+41
7.229891e+41
4.206118e+41
6.029399e+40
7.911836e+38
2.075671e+40
1.025753e+41
2.815648e+41
1.668552e+41
4.462418e+40
8.422742e+41
1.292025e+42
6.009633e+41
5.119872e+40
2.648240e+40
1.246337e+41
1.459714e+41
3.481711e+40
4.194861e+40
2.646644e+41
2.173112e+41
1.593814e+40
3.366939e+40
8.797475e+40
1.259846e+41
2.702662e+41
5.061509e+41
5.700676e+41
4.274418e+41
2.871790e+41
1.593509e+41
1.561000e+40
5.526387e+40
1.541578e+41
2.253528e+40
1.120188e+41
5.144768e+41
6.538156e+41
4.327891e+41
1.520513e+41
7.884665e+39
3.874129e+40
1.941999e+41
3.936489e+41
4.908516e+41
3.159063e+41
3.557191e+40
7.658684e+40
3.554470e+41
3.363965e+41
3.223261e+40
2.000601e+41
8.948587e+41
1.008159e+42
4.423517e+41
7.207733e+40
3.538494e+38
3.114422e+40
1.190608e+41
5.614499e+40
6.657520e+40
5.456238e+41
5.158301e+41
7.546584e+40
1.283499e+40
7.279119e+40
1.744160e+41
3.827213e+41
3.907426e+41
1.457413e+41
3.765640e+40
3.924616e+40
9.300674e+39
8.441954e+40
3.294122e+41
7.737431e+40
2.008861e+41
9.706404e+41
9.971380e+41
4.989056e+41
1.913907e+41
6.556600e+40
6.932272e+39
5.335744e+39
2.617545e+40
5.256414e+40
1.327199e+41
2.716299e+41
2.521949e+41
3.397220e+40
6.358331e+40
1.729387e+41
1.043683e+40
2.088345e+41
7.050762e+41
7.589727e+41
4.581813e+41
1.427871e+41
1.883792e+38
1.382348e+41
1.689232e+41
4.600698e+38
2.754930e+41
7.221632e+41
6.884268e+41
3.387359e+41
5.840725e+40
1.341327e+40
1.871037e+41
4.391017e+41
5.742448e+41
4.177446e+41
1.105068e+41
1.423505e+38
4.767206e+40
1.138953e+41
2.095808e+41
1.478745e+41
1.961438e+40
7.740654e+41
1.417120e+42
6.534585e+41
3.113779e+40
3.887209e+40
9.671965e+40
1.246869e+41
5.319076e+40
2.976892e+40
3.140831e+41
2.772989e+41
2.563868e+40
5.935029e+39
2.731033e+38
4.348697e+39
2.734656e+39
7.819634e+40
2.422427e+41
4.977137e+41
6.948489e+41
3.672917e+41
1.122389e+39
4.155060e+41
4.593665e+41
9.833209e+39
3.252644e+41
7.115484e+41
5.267934e+41
2.805619e+41
1.575577e+41
3.652794e+40
3.066948e+40
2.879145e+41
4.913046e+41
4.883407e+41
4.102653e+41
2.198115e+41
8.734902e+39
9.349059e+40
1.481749e+41
3.763680e+39
1.539252e+41
4.921746e+41
6.708550e+41
5.910018e+41
2.550522e+41
2.801232e+39
1.298555e+41
2.036469e+41
1.883106e+40
1.352554e+41
4.847697e+41
3.909459e+41
7.726511e+40
2.161552e+39
6.050979e+40
1.976376e+41
4.079841e+41
3.824795e+41
1.330913e+41
3.270283e+40
3.814751e+40
7.837947e+39
1.238354e+41
5.292551e+41
2.792588e+41
7.787040e+39
2.580712e+41
2.682840e+41
2.123410e+41
3.161666e+41
3.529225e+41
9.934334e+40
1.524701e+40
1.533576e+41
1.500519e+41
8.770519e+40
1.059443e+41
1.870225e+41
1.122272e+41
9.074665e+39
2.333528e+41
8.015370e+40
2.058542e+41
1.035034e+42
8.758119e+41
2.792328e+41
7.466922e+40
8.312449e+39
6.771339e+40
2.413275e+41
1.994873e+40
3.338213e+41
9.330245e+41
6.287326e+41
2.155132e+41
6.549691e+40
4.820472e+37
1.839833e+41
5.661666e+41
5.769411e+41
3.118166e+41
1.038578e+41
4.529608e+39
4.256403e+40
1.719145e+41
2.301789e+41
1.025126e+41
2.639774e+40
6.840580e+41
1.386983e+42
7.507697e+41
3.859573e+40
6.111744e+40
1.069158e+41
8.742620e+40
3.514052e+40
2.910257e+40
3.587587e+41
3.999398e+41
5.587697e+40
7.602738e+39
2.706867e+39
2.912964e+39
4.850750e+39
9.339423e+40
2.258618e+41
4.280391e+41
6.819754e+41
4.091881e+41
4.935214e+39
6.515574e+41
7.898646e+41
7.843425e+40
1.720711e+41
5.275068e+41
5.337192e+41
4.517620e+41
2.829678e+41
2.858331e+40
9.702428e+40
3.722253e+41
3.994979e+41
3.501426e+41
3.962441e+41
3.003127e+41
2.057473e+40
1.224472e+41
2.046513e+41
3.105852e+39
2.035045e+41
5.107125e+41
5.909354e+41
5.555710e+41
3.064399e+41
9.181530e+39
1.521997e+41
2.457630e+41
1.378552e+40
1.722677e+41
4.766687e+41
3.442035e+41
8.015468e+40
8.669856e+37
6.332997e+40
2.393275e+41
4.192457e+41
3.407457e+41
1.264581e+41
4.532898e+40
4.351682e+40
4.216294e+39
1.289164e+41
4.910801e+41
2.699511e+41
3.432560e+39
2.385653e+41
2.856873e+41
2.242357e+41
2.978268e+41
3.377599e+41
1.072662e+41
1.358172e+40
1.677044e+41
1.596940e+41
7.886612e+40
9.512636e+40
1.901360e+41
1.159835e+41
1.092867e+40
2.401212e+41
7.574181e+40
2.094150e+41
1.009469e+42
8.562851e+41
2.857351e+41
7.953366e+40
8.290245e+39
6.655308e+40
2.311341e+41
1.881078e+40
3.246390e+41
9.267438e+41
6.447143e+41
2.234461e+41
6.423175e+40
8.977220e+37
1.818638e+41
5.755946e+41
6.120991e+41
3.492673e+41
1.390546e+41
2.888322e+40
9.703746e+38
3.850359e+40
8.189639e+40
4.947355e+40
1.607916e+40
4.802826e+41
1.119917e+42
7.545592e+41
9.192245e+40
3.067578e+40
1.579106e+41
2.217312e+41
1.426555e+41
4.923578e+39
2.599100e+40
6.998382e+38
1.581019e+41
1.272836e+41
2.077866e+40
2.187180e+41
3.598707e+40
1.442151e+41
5.630601e+41
6.937684e+41
5.325115e+41
1.571285e+41
2.467974e+40
3.968042e+41
4.855752e+41
1.185563e+41
4.223521e+40
4.959323e+41
8.567352e+41
5.806126e+41
1.416302e+41
1.900755e+39
3.649779e+40
2.100549e+41
5.065770e+41
5.701157e+41
3.525108e+41
1.587466e+41
2.542323e+40
4.257223e+40
2.005759e+41
3.472545e+40
1.914034e+41
7.072604e+41
6.374721e+41
3.988871e+41
2.617874e+41
3.547353e+40
1.259284e+41
3.423847e+41
2.464948e+40
2.450759e+41
5.306605e+41
2.592118e+41
5.660860e+40
3.014008e+39
4.425152e+40
3.014628e+41
4.910904e+41
3.413251e+41
2.041423e+41
2.660927e+41
4.055981e+41
2.578648e+41
3.091078e+39
1.885203e+41
3.435690e+41
8.565741e+40
4.505475e+40
3.728793e+41
5.790282e+41
4.763361e+41
2.075248e+41
1.748794e+40
1.980227e+40
6.657120e+40
7.827290e+40
1.192604e+41
2.086314e+41
2.038934e+41
4.417433e+40
2.678537e+40
1.429558e+41
3.250580e+40
1.416765e+41
7.991837e+41
9.592858e+41
4.173579e+41
4.996451e+40
1.058460e+40
1.613842e+41
3.811263e+41
2.104179e+41
1.741544e+40
5.194652e+41
7.628597e+41
4.294885e+41
1.302039e+41
2.815968e+38
2.191027e+41
7.642366e+41
7.333057e+41
2.430189e+41
4.984617e+40
4.587439e+40
3.131854e+40
8.413069e+39
1.079522e+41
2.505483e+40
1.448355e+41
7.627000e+41
1.005111e+42
6.677588e+41
3.047576e+41
1.094747e+41
1.611427e+40
3.725491e+39
2.319155e+40
2.092239e+40
3.128881e+40
9.015027e+40
1.020962e+41
4.187849e+39
7.242178e+40
9.567683e+40
1.016586e+36
1.367297e+41
3.642124e+41
5.782030e+41
6.497969e+41
2.525950e+41
2.527457e+40
5.240584e+41
5.513425e+41
7.746944e+40
7.311080e+40
4.283184e+41
7.044034e+41
6.151043e+41
2.176912e+41
1.604482e+39
8.113284e+40
2.288016e+41
3.959937e+41
5.245962e+41
4.404389e+41
1.822559e+41
7.438813e+39
6.093779e+40
1.475517e+41
2.051795e+40
1.430666e+41
6.255195e+41
7.123739e+41
4.561940e+41
2.200167e+41
2.184312e+40
9.695662e+40
2.932437e+41
3.862931e+40
2.030270e+41
5.912033e+41
3.354557e+41
7.702344e+40
2.582899e+40
9.022725e+39
1.622977e+39
1.915317e+39
4.567782e+40
1.905104e+41
8.252708e+40
7.513186e+39
7.037769e+40
3.637550e+40
5.059983e+40
2.916113e+41
6.189012e+41
3.121908e+41
4.715053e+38
1.967947e+41
2.060691e+41
7.357834e+40
1.121856e+40
3.836611e+40
5.827451e+41
1.434246e+42
8.212130e+41
3.819635e+39
8.976756e+41
1.380339e+42
8.554824e+41
4.030678e+41
1.248570e+41
3.484067e+39
1.842933e+41
1.924661e+41
1.643259e+40
3.019947e+40
1.130850e+41
2.316845e+41
3.941925e+41
3.882065e+41
1.675261e+41
8.196506e+39
5.467639e+40
2.338228e+41
2.755814e+41
9.342704e+40
2.578312e+38
6.603099e+40
1.534919e+41
1.418879e+41
3.966144e+38
4.574467e+41
1.538491e+42
1.382842e+42
3.565598e+41
4.752252e+39
1.555849e+40
3.484698e+40
8.457281e+40
7.272343e+40
1.878103e+39
2.250184e+41
5.304495e+41
5.704796e+41
4.619505e+41
2.331499e+41
1.182056e+38
4.634062e+41
1.419144e+42
1.262874e+42
2.647279e+41
3.722961e+40
3.402435e+41
3.283453e+41
8.622681e+40
1.929337e+40
3.737093e+41
8.168730e+41
6.780780e+41
2.201737e+41
4.031258e+40
7.285173e+40
3.219347e+41
5.944207e+41
4.254096e+41
4.248558e+40
1.500519e+41
6.734143e+41
6.205604e+41
6.754272e+40
1.245219e+41
2.564474e+41
1.020109e+40
1.493961e+41
2.494139e+41
1.434343e+41
2.283193e+41
6.396883e+41
7.028248e+41
1.341199e+41
2.728085e+40
7.965840e+40
2.121312e+40
2.000514e+40
2.013789e+40
7.115305e+40
9.311395e+41
1.679074e+42
8.357502e+41
2.445627e+40
2.560833e+41
8.581226e+41
1.172994e+42
7.444168e+41
8.067090e+40
1.087746e+41
3.696617e+41
1.942000e+41
1.994117e+38
2.213515e+41
4.508562e+41
3.540084e+41
2.298738e+41
2.319617e+41
1.779281e+41
8.746302e+39
1.064507e+41
2.356812e+41
1.184750e+41
1.010748e+40
5.702400e+40
5.781776e+41
1.356361e+42
8.307741e+41
3.036258e+38
8.686599e+41
1.476509e+42
9.127355e+41
3.582752e+41
9.231798e+40
1.543511e+39
1.411095e+41
2.015721e+41
3.336694e+40
3.383583e+40
1.632503e+41
2.354491e+41
3.079012e+41
3.516444e+41
1.928460e+41
1.908555e+39
1.635867e+41
4.200030e+41
3.579082e+41
1.218674e+41
3.690541e+38
9.748705e+40
2.668290e+41
1.610327e+41
1.044687e+40
5.838344e+41
1.374820e+42
1.169924e+42
3.897985e+41
2.221277e+40
1.671322e+40
6.375495e+40
9.499836e+40
5.462974e+40
3.477689e+39
2.074545e+41
5.116286e+41
5.730301e+41
4.607801e+41
2.326251e+41
2.909265e+38
4.603308e+41
1.421807e+42
1.239769e+42
2.516233e+41
3.540836e+40
3.393280e+41
3.935731e+41
1.877013e+41
1.539271e+40
1.573408e+40
1.280044e+40
3.009051e+40
1.795344e+41
5.404391e+40
2.106216e+41
1.385366e+42
1.642573e+42
3.713257e+41
9.156347e+40
5.751747e+41
3.875949e+41
1.014824e+41
2.547995e+40
2.437905e+38
5.751685e+40
1.150218e+41
5.443731e+38
1.876412e+41
3.146045e+41
1.777034e+41
2.227788e+41
5.278234e+41
4.300093e+41
5.925529e+39
2.035809e+41
1.962449e+41
2.485618e+40
5.791035e+38
1.262326e+40
3.328329e+41
1.133298e+42
9.003600e+41
5.256076e+40
2.324305e+41
7.039641e+41
9.755269e+41
8.918958e+41
2.082748e+41
1.211157e+41
6.359591e+41
2.389876e+41
2.974148e+40
3.016601e+41
2.986500e+41
2.520145e+41
3.285526e+41
3.390664e+41
1.348395e+41
1.047462e+38
8.361104e+40
1.721448e+41
1.342457e+41
2.330945e+40
6.795464e+40
6.512534e+41
1.318190e+42
7.549781e+41
1.847783e+38
8.243568e+41
1.499940e+42
9.515310e+41
3.478280e+41
8.460383e+40
6.258446e+38
1.289773e+41
2.092595e+41
3.810074e+40
3.499770e+40
1.631515e+41
2.220442e+41
3.023693e+41
3.659172e+41
1.957714e+41
8.702322e+38
1.700626e+41
4.112680e+41
3.562374e+41
1.272620e+41
2.160159e+38
1.088949e+41
2.730581e+41
1.526731e+41
1.121504e+40
5.678772e+41
1.360997e+42
1.179565e+42
3.880081e+41
1.940575e+40
1.660930e+40
5.660689e+40
8.895889e+40
5.609462e+40
3.141538e+39
2.121638e+41
5.192405e+41
5.800093e+41
4.871787e+41
2.794293e+41
8.504104e+39
3.279683e+41
1.124105e+42
9.766035e+41
1.927038e+41
2.501351e+40
2.432176e+41
3.098641e+41
1.929866e+41
3.612124e+40
6.125618e+39
1.959670e+40
1.234520e+40
1.706374e+41
8.446122e+40
1.703252e+41
1.451081e+42
1.779051e+42
3.641063e+41
1.251397e+41
5.944550e+41
3.318991e+41
7.476272e+40
1.736507e+40
5.209965e+39
1.930796e+41
3.401392e+41
4.036545e+40
1.343053e+41
3.500823e+41
2.748786e+41
3.374542e+41
5.414172e+41
2.955820e+41
4.739662e+38
1.632888e+41
9.928162e+40
1.624656e+40
1.461514e+40
2.082185e+39
4.050525e+41
1.314787e+42
8.641978e+41
2.485694e+40
2.332025e+41
6.043549e+41
9.515858e+41
1.005896e+42
2.390924e+41
1.495332e+41
6.929532e+41
2.125894e+41
4.449364e+40
2.875294e+41
2.663464e+41
2.638316e+41
3.633588e+41
3.257501e+41
1.086383e+41
4.665190e+37
6.811305e+40
1.685737e+41
1.539658e+41
2.608383e+40
7.764075e+40
6.562360e+41
1.269562e+42
7.469890e+41
1.737532e+38
7.841799e+41
1.488324e+42
8.970004e+41
2.555208e+41
2.833548e+40
2.470494e+40
2.344499e+41
2.882726e+41
3.124185e+40
8.478220e+40
2.472815e+41
2.285386e+41
2.615708e+41
3.999579e+41
3.454951e+41
5.270198e+40
7.285128e+40
3.791721e+41
4.300568e+41
1.803081e+41
2.127453e+39
1.110725e+41
2.984022e+41
1.772950e+41
9.705951e+39
6.240613e+41
1.460832e+42
1.149241e+42
3.249289e+41
1.819062e+40
4.809879e+39
4.438723e+40
1.259059e+41
8.362660e+40
8.039012e+39
2.642697e+41
4.856324e+41
4.942730e+41
4.941796e+41
3.212098e+41
2.985323e+39
4.719172e+41
1.370532e+42
1.262444e+42
5.538566e+41
1.578989e+41
7.419385e+40
1.192574e+41
2.079722e+41
1.488207e+41
2.130092e+39
1.256525e+41
2.194496e+41
3.055213e+40
9.224242e+40
4.246762e+41
5.393016e+41
3.797506e+41
1.574663e+41
7.496306e+39
1.060996e+41
4.679328e+41
4.571318e+41
3.866982e+40
1.496258e+41
3.311130e+41
1.011289e+41
3.211799e+38
5.010034e+40
1.962396e+41
5.453403e+41
7.519958e+41
4.290477e+41
7.717513e+40
2.583708e+38
3.919119e+40
1.001585e+41
9.698813e+40
1.452190e+40
4.785180e+40
3.998909e+41
9.354291e+41
8.491360e+41
1.124104e+41
2.172806e+41
9.185984e+41
1.019966e+42
6.798001e+41
1.849104e+41
5.319470e+40
5.919400e+41
3.650363e+41
2.124501e+40
4.581240e+41
3.721268e+41
1.910410e+41
3.529654e+41
5.686288e+41
2.159323e+41
5.167928e+39
1.367612e+41
1.521025e+41
1.421200e+41
7.790713e+40
1.570892e+40
4.580014e+41
7.807381e+41
2.569463e+41
4.270631e+40
7.063906e+41
1.284250e+42
1.093904e+42
4.906922e+41
6.486618e+40
4.282822e+40
3.386067e+41
3.895273e+41
3.492986e+40
1.658897e+41
3.807188e+41
1.665068e+41
9.924776e+40
3.414859e+41
5.189486e+41
6.057709e+40
2.448498e+41
6.323806e+41
3.090427e+41
5.811071e+40
1.889502e+39
7.224151e+40
4.527710e+41
4.796589e+41
8.686379e+39
4.762036e+41
1.178794e+42
1.021841e+42
5.190122e+41
1.202811e+41
8.550216e+39
1.856920e+41
1.945535e+41
2.124766e+40
3.713165e+40
1.532031e+41
2.447461e+41
3.634589e+41
4.746210e+41
4.067207e+41
1.723811e+41
2.089745e+40
5.202263e+38
1.290651e+40
1.026421e+41
4.915752e+41
9.613135e+41
6.765449e+41
8.373254e+40
2.733050e+40
5.144921e+40
5.240460e+39
3.064949e+39
2.697258e+40
1.351703e+39
2.139796e+41
8.600800e+41
7.534301e+41
1.166902e+41
2.448719e+40
1.379598e+41
2.343323e+41
3.273204e+41
1.258789e+41
5.727610e+40
4.654303e+41
2.355810e+41
5.707630e+39
1.524062e+41
1.779460e+41
3.382212e+41
7.454397e+41
6.377804e+41
8.601641e+40
2.474001e+40
5.487369e+40
3.563913e+40
6.836733e+40
5.307991e+40
2.745466e+40
5.320796e+41
1.040175e+42
6.937382e+41
8.077929e+40
1.435281e+41
8.057432e+41
1.170835e+42
7.802648e+41
1.365447e+41
7.958263e+40
5.077189e+41
3.095488e+41
8.278190e+39
3.965031e+41
4.394644e+41
2.402509e+41
3.107995e+41
5.146348e+41
2.674032e+41
4.099445e+36
1.127256e+41
9.836563e+40
4.004703e+40
1.264895e+40
2.525242e+40
3.734528e+41
6.637635e+41
2.120975e+41
4.980215e+40
6.278364e+41
1.111365e+42
1.092745e+42
6.234704e+41
9.063546e+40
7.062370e+40
3.861694e+41
2.782055e+41
2.516672e+38
3.024421e+41
5.804922e+41
3.718416e+41
2.249460e+41
3.049212e+41
2.884000e+41
1.444954e+40
1.989562e+41
4.449022e+41
2.527021e+41
8.677974e+40
1.318576e+40
6.989564e+40
5.309400e+41
5.342508e+41
3.983936e+39
5.545057e+41
1.174248e+42
9.119538e+41
4.885333e+41
1.560060e+41
2.866780e+39
2.225242e+41
2.780351e+41
6.101206e+40
1.072138e+39
1.534317e+40
1.123214e+41
1.412904e+41
3.001545e+40
3.352747e+40
3.203984e+41
5.792267e+41
2.632587e+41
2.866144e+40
7.363723e+41
1.133746e+42
5.719613e+41
1.279784e+41
4.453792e+40
4.004571e+40
8.785051e+38
7.520560e+40
1.432871e+41
1.593834e+40
6.876565e+40
2.851721e+41
4.618255e+41
5.242029e+41
2.730497e+41
3.228136e+38
2.499033e+41
4.552650e+41
2.382236e+41
2.342822e+40
4.249213e+40
2.451952e+41
2.400394e+41
9.916268e+39
1.368193e+41
3.331100e+41
3.733662e+41
5.138689e+41
5.729339e+41
1.858834e+41
9.600297e+39
1.211872e+41
6.026596e+40
2.480901e+40
2.932903e+40
5.606724e+39
4.562565e+41
1.228409e+42
7.955716e+41
4.219326e+40
1.951171e+41
7.002314e+41
1.065383e+42
8.917694e+41
1.755378e+41
1.134674e+41
5.729333e+41
2.512222e+41
1.954757e+40
3.421277e+41
3.819264e+41
2.761315e+41
3.471685e+41
4.550685e+41
2.307660e+41
1.327328e+39
9.740596e+40
1.411506e+41
8.599615e+40
3.724829e+40
3.769492e+38
1.430775e+41
3.750168e+41
1.852360e+41
5.763120e+39
2.902279e+41
5.575888e+41
5.690335e+41
3.763396e+41
6.936808e+40
5.471961e+40
3.125136e+41
1.793650e+41
4.198283e+39
2.411931e+41
3.706381e+41
3.299153e+41
3.881216e+41
4.475175e+41
1.986775e+41
7.847591e+38
1.694146e+41
2.618388e+41
2.332948e+41
1.901554e+41
3.286969e+40
1.351046e+41
6.551615e+41
4.272844e+41
8.152912e+38
4.882338e+41
1.020515e+42
1.070910e+42
8.221892e+41
4.121068e+41
1.291913e+41
9.721898e+40
2.808468e+41
4.421603e+41
1.267586e+41
1.096487e+41
8.229659e+41
7.565734e+41
2.785919e+40
4.525510e+41
9.497345e+41
3.534164e+41
5.295297e+38
8.625133e+40
2.203173e+41
5.844287e+41
9.481220e+41
5.063003e+41
2.101970e+40
2.027491e+40
6.802929e+38
1.685745e+38
5.932029e+40
1.145114e+41
9.577621e+39
4.779341e+41
7.442682e+41
3.844029e+41
1.157068e+41
7.216256e+39
1.008076e+41
4.942270e+41
4.323105e+41
2.394029e+40
1.234041e+41
2.537585e+41
1.240098e+41
5.848932e+39
6.058955e+40
3.003324e+41
5.295653e+41
5.754312e+41
4.323282e+41
1.500991e+41
2.016772e+38
9.820071e+40
1.096095e+41
3.975554e+40
9.165605e+39
1.341983e+40
3.655690e+41
1.129640e+42
9.010475e+41
5.918687e+40
2.458864e+41
7.591094e+41
9.625363e+41
8.406016e+41
2.315526e+41
8.750684e+40
6.868307e+41
3.839900e+41
2.069217e+39
2.372784e+41
2.835226e+41
3.150569e+41
5.571598e+41
5.914639e+41
1.569164e+41
8.968940e+39
9.605843e+40
7.185199e+40
5.807091e+40
6.071315e+40
1.692892e+39
1.537252e+41
4.437328e+41
1.962851e+41
1.485659e+40
3.367543e+41
5.294019e+41
5.002071e+41
3.786122e+41
9.837501e+40
4.680107e+40
3.588535e+41
1.982870e+41
1.022040e+40
2.644047e+41
3.220185e+41
2.876374e+41
4.253776e+41
5.000451e+41
1.772025e+41
4.807281e+39
1.573291e+41
2.283157e+41
2.501347e+41
2.210754e+41
2.619374e+40
1.687566e+41
6.454461e+41
3.830003e+41
5.104513e+38
4.426504e+41
1.024224e+42
1.125324e+42
8.083800e+41
3.746493e+41
1.330927e+41
1.191352e+41
2.871912e+41
4.151609e+41
1.268875e+41
9.626228e+40
8.216383e+41
7.860111e+41
2.638230e+40
4.831379e+41
9.527867e+41
3.303557e+41
2.536938e+38
8.165629e+40
2.235935e+41
6.032926e+41
9.357333e+41
4.680628e+41
1.115783e+40
5.277353e+40
5.460446e+40
1.282285e+41
5.830365e+41
8.927056e+41
2.364656e+41
6.047624e+40
3.221796e+41
1.069548e+41
1.295472e+40
2.438817e+41
6.259322e+41
8.088039e+41
3.964853e+41
6.095712e+38
4.149487e+41
1.277242e+42
1.514267e+42
6.056725e+41
9.332150e+38
3.001273e+41
1.440501e+41
1.033656e+39
2.935404e+39
2.076769e+40
6.608941e+39
4.750895e+41
9.021725e+41
3.866557e+41
7.154286e+40
4.398968e+40
2.341681e+39
1.889830e+41
5.032686e+41
1.160692e+41
7.409169e+40
2.761992e+41
1.672022e+41
3.411181e+40
2.756025e+40
4.326277e+41
9.239148e+41
7.228578e+41
3.088153e+41
8.480598e+40
4.449831e+39
2.245085e+41
2.544512e+41
3.264492e+39
1.168793e+41
1.379070e+41
1.683862e+41
5.533624e+41
8.849686e+41
3.138496e+41
1.399498e+40
3.640555e+41
7.570795e+41
1.041191e+42
6.695422e+41
1.813201e+40
3.167915e+41
4.685541e+41
4.344008e+40
1.877351e+41
7.429685e+41
8.416597e+41
4.125320e+41
8.743329e+40
1.325850e+40
6.748989e+37
4.921751e+40
1.727319e+41
6.106754e+40
3.579119e+40
2.172794e+41
2.222187e+41
2.132343e+41
2.116263e+41
1.888788e+40
3.216564e+41
1.380037e+42
1.542779e+42
8.029466e+41
3.259402e+41
1.962803e+41
1.421297e+41
8.515343e+40
7.150589e+40
6.710249e+40
4.756514e+38
2.118057e+41
4.933264e+41
5.909106e+40
4.246181e+41
1.479347e+42
1.248750e+42
5.225525e+41
1.503016e+41
4.054401e+37
3.285406e+41
9.289333e+41
6.204417e+41
4.827760e+40
4.185139e+40
7.281604e+40
4.560697e+40
4.650835e+40
9.787878e+39
9.676795e+40
5.839138e+41
6.947028e+41
2.805666e+41
8.224584e+40
6.138791e+40
8.539826e+38
2.711758e+41
6.870523e+41
1.315136e+41
2.654537e+41
1.095001e+42
1.138214e+42
7.225953e+41
1.285452e+41
2.769744e+41
1.700649e+42
1.636502e+42
3.332092e+41
1.523638e+39
5.940766e+40
9.091876e+40
1.023243e+41
1.774453e+40
2.975216e+40
1.145640e+41
1.904294e+41
4.415669e+41
6.654725e+41
3.187265e+41
6.538462e+39
5.224808e+40
1.214746e+41
2.083097e+41
1.535669e+41
2.975891e+39
3.176124e+41
3.613154e+41
2.339793e+40
1.190115e+41
4.144751e+41
6.553230e+41
7.435346e+41
4.765660e+41
8.046918e+40
3.272591e+40
2.117630e+41
1.576818e+41
4.772471e+39
5.760872e+40
1.388038e+41
2.419920e+41
5.417421e+41
7.487409e+41
3.221006e+41
2.752118e+39
3.796183e+41
8.776078e+41
1.027357e+42
5.750535e+41
1.846820e+40
2.687193e+41
4.850307e+41
6.513624e+40
1.962118e+41
8.178187e+41
8.200495e+41
3.574365e+41
8.991485e+40
2.248483e+40
3.309667e+36
6.306862e+40
1.630223e+41
4.668261e+40
3.160202e+40
1.908498e+41
2.443448e+41
2.911932e+41
3.336271e+41
1.450766e+41
3.361483e+39
1.340011e+41
7.137644e+40
2.295485e+38
1.167661e+40
3.755526e+41
1.019822e+42
6.699020e+41
4.111212e+40
6.885922e+40
1.061960e+41
6.213610e+40
6.563912e+40
2.433385e+40
9.183872e+40
9.053466e+41
1.692550e+42
1.099568e+42
1.289740e+41
1.012691e+41
4.425317e+41
5.102098e+41
4.000056e+41
1.685378e+41
3.372826e+37
1.431347e+41
1.319640e+41
5.655651e+38
7.827395e+40
2.311043e+41
5.688291e+41
8.711900e+41
4.474404e+41
2.747260e+40
7.394937e+38
2.933065e+38
6.485513e+40
5.075292e+41
3.000886e+41
1.342931e+41
1.321145e+42
1.425646e+42
6.177796e+41
5.316002e+40
3.217670e+41
1.843949e+42
2.099514e+42
5.568787e+41
6.764783e+36
8.763029e+40
1.301320e+41
1.439265e+41
2.483836e+40
6.046255e+40
1.915830e+41
1.703066e+41
3.014818e+41
6.284610e+41
4.373409e+41
1.592300e+40
9.031162e+40
1.591525e+41
1.640610e+41
1.199099e+41
1.575324e+38
2.653612e+41
3.897490e+41
3.682004e+40
1.270292e+41
4.472421e+41
6.393796e+41
7.157623e+41
4.922449e+41
8.752821e+40
3.769262e+40
2.262828e+41
1.552160e+41
4.099737e+39
5.567479e+40
1.402335e+41
2.517724e+41
5.401857e+41
7.290142e+41
3.207454e+41
1.823946e+39
3.755987e+41
8.810100e+41
1.012981e+42
5.619588e+41
2.028465e+40
2.555346e+41
4.865005e+41
7.027992e+40
1.958710e+41
8.286893e+41
8.175548e+41
3.543370e+41
9.558190e+40
2.614718e+40
8.137787e+36
7.473900e+40
1.992530e+41
1.052324e+41
6.930761e+39
4.108066e+39
7.904831e+40
1.750340e+41
7.837140e+40
4.209361e+38
9.201163e+40
2.307261e+41
1.867016e+41
1.361832e+38
4.376031e+41
1.219508e+42
8.639931e+41
1.269882e+41
3.397133e+38
6.720257e+36
3.795710e+38
1.300537e+41
3.934408e+41
9.652047e+40
1.542195e+41
7.427733e+41
8.251921e+41
6.149932e+41
2.846225e+41
1.775538e+37
4.031451e+41
8.027786e+41
4.775595e+41
1.029859e+41
7.485407e+38
1.037350e+41
1.504026e+41
8.912616e+39
1.021471e+41
3.225799e+41
5.059530e+41
6.910010e+41
5.066219e+41
8.489858e+40
2.275294e+39
1.238669e+40
6.233226e+40
3.396012e+41
2.844078e+41
6.206314e+40
1.276021e+42
1.703345e+42
6.539166e+41
1.377846e+40
3.678595e+41
1.588087e+42
1.982721e+42
6.988182e+41
1.823316e+39
1.385380e+41
1.596846e+41
9.286817e+40
1.386334e+40
2.979209e+40
1.507059e+41
2.199344e+41
3.486329e+41
5.475322e+41
3.858491e+41
2.944694e+40
7.171621e+40
1.998830e+41
1.950013e+41
9.199061e+40
2.748917e+39
2.364032e+41
3.568529e+41
5.035213e+40
1.085623e+41
4.871783e+41
6.759255e+41
6.622737e+41
4.539510e+41
1.023819e+41
2.864301e+40
2.424347e+41
1.654367e+41
1.466489e+39
6.450364e+40
1.242078e+41
2.357909e+41
5.744610e+41
7.643869e+41
3.047037e+41
3.130607e+39
3.570603e+41
8.605293e+41
1.035343e+42
5.375778e+41
2.674466e+39
4.361061e+41
8.067173e+41
2.554087e+41
5.437223e+40
7.808125e+41
1.335166e+42
1.078400e+42
5.588128e+41
2.384267e+41
1.017881e+41
8.299472e+40
2.284003e+41
5.102758e+41
2.676427e+41
7.703325e+40
1.090403e+42
9.576299e+41
1.741789e+40
3.738582e+41
3.975855e+41
4.859146e+40
1.782556e+38
1.649274e+39
9.264820e+40
7.430028e+41
1.255575e+42
4.346684e+41
4.015081e+39
8.845897e+40
6.865832e+39
1.052767e+40
2.304598e+41
2.523170e+41
4.313124e+40
9.918804e+41
1.237258e+42
4.982066e+41
1.124871e+41
1.557478e+39
1.964520e+41
8.350322e+41
7.760225e+41
1.137044e+41
3.842773e+40
1.246291e+41
5.462028e+40
2.507041e+39
3.362811e+40
2.667486e+41
6.742240e+41
7.127819e+41
2.706365e+41
1.324788e+40
8.227991e+39
3.349746e+40
1.636824e+41
3.752655e+41
1.331085e+41
1.384180e+41
1.086952e+42
1.386977e+42
6.843334e+41
4.109992e+40
3.534277e+41
1.661753e+42
1.971400e+42
6.930897e+41
4.252916e+39
1.458730e+41
1.982203e+41
9.125576e+40
4.319712e+39
3.020762e+40
1.121559e+41
2.224451e+41
4.315773e+41
5.630849e+41
3.107155e+41
2.445555e+40
4.169662e+40
1.784282e+41
2.444560e+41
1.055062e+41
1.048658e+40
2.539806e+41
2.927279e+41
3.800724e+40
8.064193e+40
4.494393e+41
7.469597e+41
7.114978e+41
4.105659e+41
8.884275e+40
1.792415e+40
2.218425e+41
2.003573e+41
6.287017e+39
6.404395e+40
1.018760e+41
1.252738e+41
3.206663e+41
4.657424e+41
1.398698e+41
3.170520e+40
3.324032e+41
5.948275e+41
7.821761e+41
5.721730e+41
3.014144e+40
3.582497e+41
9.085487e+41
3.478573e+41
4.844177e+40
8.863507e+41
1.439269e+42
1.019175e+42
4.748934e+41
2.407188e+41
1.482356e+41
1.024106e+41
1.843297e+41
4.487756e+41
3.062853e+41
4.983127e+40
1.128689e+42
1.057303e+42
1.405091e+40
4.378003e+41
3.845756e+41
2.629722e+40
4.100865e+38
5.605024e+37
8.692104e+40
8.221608e+41
1.290013e+42
3.892773e+41
5.419974e+39
6.755261e+40
4.915065e+39
2.018121e+40
2.540008e+41
2.274412e+41
5.063370e+40
9.435631e+41
1.198384e+42
5.261956e+41
1.204312e+41
2.258598e+38
2.116875e+41
7.966976e+41
7.385440e+41
1.198061e+41
3.466261e+40
1.348032e+41
5.990452e+40
1.426009e+39
3.654492e+40
2.498659e+41
6.515649e+41
7.311699e+41
2.876998e+41
1.541931e+40
3.378481e+39
8.765221e+39
6.434937e+40
1.586393e+41
8.039728e+39
4.138521e+41
1.402254e+42
1.248797e+42
4.124268e+41
4.040068e+39
3.325184e+41
1.342484e+42
1.721164e+42
7.743171e+41
3.515050e+40
1.179265e+41
2.870701e+41
1.476145e+41
2.355776e+38
7.691106e+40
1.083931e+41
1.356554e+41
3.846096e+41
6.841409e+41
3.689882e+41
9.271734e+39
7.022096e+40
1.456735e+41
1.867901e+41
1.206451e+41
3.953369e+39
3.356796e+41
5.128338e+41
1.333448e+41
1.568391e+40
2.284816e+41
5.138465e+41
7.708343e+41
6.696996e+41
1.693531e+41
3.728484e+40
3.521013e+41
2.338303e+41
2.442150e+38
1.098732e+41
1.233115e+41
1.243627e+41
3.705906e+41
7.264162e+41
4.406554e+41
1.371478e+40
1.365663e+41
4.095900e+41
6.676181e+41
7.006548e+41
2.067795e+41
5.762444e+40
4.940495e+41
2.600359e+41
1.681799e+40
3.504838e+41
2.707399e+41
3.051999e+40
4.035511e+39
1.153398e+41
5.172022e+41
8.296536e+41
6.963981e+41
1.898870e+41
9.009367e+40
1.067725e+42
1.465046e+42
5.655340e+41
4.397316e+40
4.146853e+37
3.090584e+39
6.369945e+40
1.347284e+41
5.951100e+39
1.861379e+41
4.616364e+41
2.715984e+41
4.260075e+40
1.003497e+39
3.075860e+40
9.996936e+40
2.694899e+41
4.806060e+41
3.163287e+41
1.003788e+39
6.122551e+41
1.305922e+42
8.651647e+41
1.837462e+41
1.164805e+40
4.353309e+41
1.125004e+42
7.845338e+41
2.215146e+39
6.542761e+41
8.544952e+41
1.168677e+41
4.322396e+40
1.018266e+41
1.343199e+41
5.933143e+41
1.532209e+42
1.357710e+42
3.108486e+41
9.445637e+38
3.261655e+39
1.367420e+39
1.376973e+39
1.206996e+40
2.321397e+41
8.808233e+41
1.014884e+42
2.477757e+41
1.049128e+41
1.025935e+42
1.697554e+42
1.516668e+42
9.177753e+41
2.832512e+41
2.616750e+37
1.369934e+41
6.014219e+40
3.919951e+40
1.689455e+41
6.124090e+40
2.393032e+40
1.431501e+41
2.682204e+41
4.401886e+40
7.138088e+40
2.361719e+41
2.515342e+41
2.772952e+41
1.554783e+41
1.749623e+40
6.240089e+41
1.080491e+42
5.196899e+41
2.036431e+40
1.271324e+41
4.304641e+41
5.522973e+41
3.396611e+41
2.307392e+40
1.691073e+41
5.518848e+41
2.798165e+41
6.207806e+39
3.153375e+41
4.554800e+41
4.828157e+41
7.362429e+41
8.718047e+41
4.000326e+41
8.777478e+39
1.348780e+41
4.959177e+41
9.939029e+41
1.246940e+42
8.054116e+41
2.530692e+41
9.634604e+40
1.937821e+41
3.423673e+41
1.383243e+41
1.504544e+40
1.105593e+41
1.722905e+40
7.389851e+41
1.164203e+42
4.918967e+41
1.401582e+41
1.237709e+41
4.006542e+39
6.092385e+41
2.004153e+42
1.121362e+42
2.096102e+40
8.673684e+40
1.146996e+40
9.388656e+36
5.856572e+40
6.753060e+40
7.402999e+40
6.441503e+41
4.782267e+41
1.716414e+40
3.979074e+40
1.733534e+40
2.144006e+40
2.763172e+41
7.225325e+41
3.392769e+41
2.858421e+40
6.650509e+41
1.041974e+42
7.921031e+41
2.907716e+41
4.086906e+39
5.870017e+41
1.250872e+42
6.356150e+41
1.347607e+38
5.394012e+41
7.587078e+41
1.685275e+41
2.458708e+40
1.473786e+41
1.746433e+41
5.026669e+41
1.393431e+42
1.466112e+42
3.658480e+41
1.960761e+38
1.161668e+40
3.011083e+39
4.702827e+38
1.499503e+39
7.315262e+40
5.823641e+41
7.334517e+41
1.408555e+41
9.807597e+40
7.205645e+41
1.357227e+42
1.629336e+42
1.210627e+42
3.394423e+41
6.255526e+39
1.997702e+41
5.738690e+40
6.628281e+40
2.046449e+41
5.376150e+40
1.134127e+40
1.321904e+41
3.131098e+41
5.841055e+40
9.103692e+40
2.812051e+41
2.261502e+41
2.242534e+41
1.694803e+41
4.796976e+39
6.205133e+41
1.197899e+42
5.326628e+41
8.995369e+39
1.336038e+41
3.710723e+41
5.354253e+41
3.960903e+41
2.813714e+40
2.087415e+41
5.905123e+41
2.474317e+41
9.398657e+39
2.814958e+41
4.355831e+41
5.422265e+41
8.381402e+41
1.037118e+42
7.710559e+41
3.921622e+41
1.987062e+41
6.904278e+40
1.205892e+40
4.246688e+41
1.230071e+42
1.507817e+42
9.465950e+41
3.335035e+41
1.135960e+41
8.358052e+40
4.797618e+40
3.329884e+39
2.742095e+39
1.463587e+41
6.866103e+41
1.032201e+42
6.444549e+41
7.969476e+40
1.370727e+41
8.133083e+41
1.120446e+42
6.666769e+41
1.573229e+41
1.350908e+38
5.961680e+40
9.686078e+40
3.478988e+40
1.063770e+39
7.868338e+40
2.952389e+41
4.198669e+41
1.330597e+41
1.620956e+40
1.157418e+41
6.029779e+40
1.266753e+41
5.608583e+41
5.325383e+41
4.102468e+39
8.823569e+41
1.254777e+42
6.034677e+41
1.905853e+41
1.148859e+39
4.339827e+41
1.399475e+42
7.412369e+41
1.924093e+40
8.613343e+41
9.583146e+41
2.952523e+41
9.262318e+39
4.244455e+40
2.564026e+41
8.424779e+41
1.569265e+42
1.295959e+42
2.894447e+41
8.903598e+38
1.054933e+40
9.285742e+39
6.428140e+39
3.199907e+39
3.418331e+40
5.698079e+41
9.074684e+41
1.660737e+41
1.711439e+41
8.333306e+41
1.176740e+42
1.445440e+42
1.358152e+42
4.415995e+41
1.535451e+40
2.726876e+41
4.065326e+40
1.098049e+41
1.759391e+41
2.300011e+40
1.447870e+40
1.866130e+41
3.025293e+41
3.173023e+40
8.963540e+40
2.280240e+41
2.318588e+41
2.778997e+41
1.676681e+41
1.527887e+40
6.365610e+41
1.113672e+42
5.259668e+41
1.746241e+40
1.293566e+41
4.102335e+41
5.365453e+41
3.526899e+41
2.562937e+40
1.842535e+41
5.929090e+41
3.130968e+41
4.765644e+38
8.282791e+40
2.553987e+40
5.146371e+39
4.807534e+39
1.876938e+40
1.838072e+41
6.456676e+41
1.146287e+42
6.062230e+41
3.261727e+40
1.395718e+42
2.151027e+42
1.035115e+42
2.691241e+41
2.384285e+41
4.803485e+41
3.138319e+41
1.280207e+39
7.255851e+40
5.891036e+39
4.652761e+41
8.213053e+41
5.809000e+41
4.250042e+41
2.235006e+41
3.381006e+40
1.077365e+42
1.605204e+42
5.453540e+41
3.751042e+40
3.234467e+39
5.262009e+38
6.132921e+40
5.014417e+40
5.998658e+40
5.294989e+41
6.882926e+41
3.911499e+41
7.484854e+40
2.155597e+40
1.418536e+41
5.544405e+40
7.458120e+39
1.031088e+41
2.886482e+41
4.853219e+39
6.612059e+41
1.391467e+42
6.523665e+41
1.021866e+41
2.486273e+37
2.519099e+41
1.185300e+42
1.020090e+42
1.845973e+38
1.043804e+42
1.313051e+42
2.514529e+41
4.274540e+39
4.480511e+40
1.392059e+41
7.910858e+41
1.853109e+42
1.388204e+42
1.973091e+41
7.838532e+39
1.435750e+39
2.407863e+40
1.106651e+39
1.354478e+40
4.480636e+40
6.465894e+41
8.672374e+41
1.306071e+41
1.563988e+41
7.410358e+41
1.178887e+42
1.545102e+42
1.361953e+42
3.938342e+41
1.724026e+40
2.446750e+41
3.963658e+40
9.088687e+40
1.715417e+41
3.379698e+40
1.878995e+40
1.709367e+41
2.910774e+41
3.852183e+40
8.308038e+40
2.411775e+41
2.372455e+41
2.583383e+41
1.586494e+41
1.156016e+40
6.109656e+41
1.122523e+42
5.330663e+41
1.498189e+40
1.340114e+41
3.997191e+41
5.314651e+41
3.682007e+41
2.898136e+40
1.897251e+41
6.060483e+41
3.127834e+41
5.900168e+38
7.683632e+40
2.430542e+40
4.051324e+39
4.385499e+39
1.610990e+40
1.767165e+41
6.497352e+41
1.151510e+42
6.023193e+41
3.038272e+40
1.342504e+42
2.057444e+42
9.360968e+41
1.745891e+41
1.003220e+41
2.312862e+41
1.409606e+41
2.710046e+39
5.101440e+40
4.527349e+40
6.329114e+41
7.946615e+41
4.088297e+41
3.132205e+41
2.548122e+41
1.053756e+40
1.129425e+42
2.076331e+42
9.161955e+41
1.301016e+41
3.480450e+40
9.325367e+39
4.356610e+40
1.125961e+41
6.597622e+39
4.985269e+41
9.488430e+41
5.368584e+41
3.787192e+40
8.525034e+40
1.472299e+41
1.432586e+40
1.418213e+39
1.597016e+41
3.583189e+41
2.116941e+38
7.889845e+41
1.337619e+42
5.364910e+41
9.358589e+40
1.480501e+39
2.408715e+41
1.259564e+42
1.032176e+42
8.555947e+38
1.103678e+42
1.266939e+42
2.263433e+41
3.413935e+39
4.002296e+40
1.521784e+41
8.337785e+41
1.845061e+42
1.351551e+42
1.977205e+41
7.744491e+39
6.413890e+39
3.106208e+39
1.343020e+40
1.050818e+41
3.055886e+39
3.000950e+41
6.502984e+41
1.823699e+41
4.794890e+40
5.425976e+41
1.255565e+42
1.931355e+42
1.604737e+42
3.294879e+41
7.047315e+40
2.913422e+41
1.203039e+40
1.460273e+41
1.310295e+41
6.427277e+39
1.987497e+40
2.615123e+41
3.295348e+41
1.590688e+40
1.092222e+41
1.890083e+41
1.953902e+41
3.195624e+41
2.190778e+41
1.837993e+40
7.220452e+41
1.112523e+42
4.677248e+41
1.883996e+40
9.827444e+40
4.239344e+41
6.914404e+41
5.453127e+41
1.599955e+41
5.430948e+39
6.280311e+39
2.453085e+41
9.079297e+41
7.887599e+41
3.962243e+40
2.471083e+41
2.597827e+41
2.040961e+40
6.984714e+41
1.167041e+42
7.674171e+41
1.760671e+41
3.566344e+40
7.215733e+41
1.648413e+42
1.424327e+42
4.365455e+41
4.278801e+40
4.156167e+40
1.282645e+41
3.050720e+40
2.660271e+40
3.779117e+36
4.534770e+41
1.130898e+42
6.547070e+41
2.090615e+41
1.213009e+41
4.554958e+38
8.188117e+41
2.284018e+42
1.304435e+42
1.181774e+41
5.870190e+38
8.168282e+39
5.883088e+39
1.185026e+41
4.571018e+39
4.745761e+41
1.244397e+42
6.074223e+41
9.540093e+39
9.455659e+40
7.121836e+40
6.755837e+39
1.925251e+40
1.975545e+41
2.734481e+41
3.147977e+37
6.297819e+41
1.252004e+42
6.737672e+41
1.320955e+41
1.375971e+38
2.688015e+41
1.131491e+42
9.881561e+41
1.951396e+39
1.002952e+42
1.360964e+42
2.573887e+41
8.419343e+39
4.303151e+40
1.066120e+41
7.596983e+41
1.928635e+42
1.400296e+42
1.686878e+41
1.028049e+40
1.019822e+39
8.618075e+39
1.817420e+40
1.170767e+41
1.554019e+39
2.957368e+41
5.789740e+41
1.628648e+41
3.595410e+40
5.039760e+41
1.272269e+42
1.922668e+42
1.521327e+42
3.161757e+41
5.305274e+40
2.565249e+41
1.191341e+40
1.486500e+41
1.518275e+41
9.025092e+39
1.473001e+40
2.415828e+41
3.307444e+41
1.420931e+40
1.296552e+41
2.069972e+41
1.944944e+41
3.495876e+41
3.230605e+41
9.604103e+38
4.343922e+41
8.118537e+41
4.595082e+41
1.761903e+41
1.038020e+41
6.417483e+40
2.120418e+40
5.248633e+39
5.074734e+37
4.221334e+40
3.713879e+41
9.593566e+41
9.198819e+41
1.963050e+41
3.116572e+40
1.261630e+41
1.809096e+39
1.006674e+41
2.494964e+41
5.420497e+41
1.073724e+42
7.506013e+41
5.509490e+38
9.139346e+41
1.223917e+42
3.613925e+41
5.743948e+40
1.089991e+41
1.704227e+41
9.939383e+39
1.115824e+41
1.147163e+41
4.526144e+40
7.616138e+41
1.209055e+42
6.676180e+41
1.726719e+41
2.896567e+40
1.582187e+40
5.162075e+41
1.676360e+42
1.590258e+42
3.514887e+41
2.784760e+39
3.728440e+40
3.823728e+39
2.463623e+39
4.242471e+36
1.990332e+41
1.061558e+42
9.777375e+41
3.320374e+40
2.712931e+41
1.590460e+41
5.432901e+39
4.615928e+38
3.395619e+41
4.020306e+41
1.965859e+40
8.586499e+41
1.057487e+42
5.048560e+41
1.926100e+41
5.169549e+39
3.766066e+41
1.368066e+42
8.519148e+41
3.556058e+39
9.193751e+41
1.205410e+42
3.255839e+41
1.777371e+38
7.190133e+40
1.777793e+41
7.227312e+41
1.781976e+42
1.513082e+42
2.289832e+41
1.893837e+40
1.015196e+40
1.180081e+40
9.153257e+39
1.456493e+41
8.478188e+39
3.379999e+41
6.894871e+41
1.601338e+41
5.133368e+40
4.810763e+41
1.200288e+42
1.990894e+42
1.595936e+42
2.508765e+41
1.402651e+41
4.564181e+41
9.542297e+40
2.525524e+40
6.112372e+40
1.916249e+40
7.826104e+40
3.508307e+41
2.975432e+41
1.083240e+39
1.610512e+41
1.795171e+41
1.657178e+41
4.770096e+41
8.312886e+41
3.854669e+41
1.297611e+40
3.496777e+35
4.261493e+40
9.317463e+39
2.507408e+41
9.205010e+41
4.858421e+41
3.374486e+39
3.342874e+41
2.962880e+41
1.397061e+41
3.151966e+41
8.313653e+41
5.985712e+41
1.718340e+39
2.952634e+41
1.194614e+41
1.095621e+41
5.944932e+41
6.921804e+41
6.966156e+41
5.391301e+41
2.160356e+40
5.988950e+41
1.498297e+42
6.668781e+41
3.972145e+40
2.055492e+40
1.852000e+41
7.496882e+40
1.188575e+41
2.846123e+41
2.766908e+40
1.046065e+42
1.303620e+42
4.562795e+41
1.363794e+41
9.887549e+40
2.329787e+39
6.770403e+41
1.843688e+42
1.367549e+42
3.019238e+41
3.717033e+39
1.377432e+40
1.926843e+40
8.293756e+39
1.874657e+40
4.131956e+41
1.420195e+42
1.512101e+42
2.530213e+41
1.756544e+41
5.409283e+41
2.426439e+41
1.573688e+41
2.872181e+41
5.444656e+40
3.469847e+41
9.790979e+41
2.388883e+41
5.620709e+39
3.785088e+39
8.578290e+40
7.015321e+40
1.266392e+42
1.072850e+42
1.191427e+40
1.089557e+42
7.072856e+41
2.768930e+38
1.062489e+41
1.647916e+39
6.414840e+40
1.958824e+41
2.502121e+42
3.648876e+42
8.885858e+41
1.415985e+41
7.164171e+41
1.456299e+41
5.688747e+40
2.783403e+41
3.129228e+41
1.586879e+41
1.029122e+38
1.364272e+41
2.024586e+41
2.029311e+41
6.820334e+41
1.935869e+42
1.835598e+42
2.051140e+41
2.265412e+41
2.328022e+41
5.017740e+40
2.907609e+41
4.741405e+37
3.116542e+41
1.589875e+40
9.085535e+41
1.968658e+42
5.277698e+41
3.836760e+40
1.395147e+41
1.267205e+40
2.661603e+41
1.710833e+41
1.495055e+40
6.734649e+41
1.439543e+42
5.070772e+41
2.916142e+41
2.386599e+42
1.965797e+42
1.745990e+41
1.078104e+41
1.382830e+41
6.825339e+40
3.063653e+41
9.471520e+41
7.491296e+41
2.549468e+40
2.509057e+41
2.646479e+41
6.218204e+39
5.638521e+41
1.022351e+42
5.762564e+41
9.830656e+40
1.055192e+40
2.758553e+40
3.216182e+39
2.753198e+41
1.389222e+42
1.612315e+42
5.764779e+41
1.125439e+40
1.765108e+41
4.978258e+41
1.406896e+41
4.905369e+41
2.774639e+42
2.262412e+42
3.044292e+41
3.933759e+39
6.148493e+40
2.758678e+39
7.921204e+41
2.204753e+42
8.460556e+41
1.486053e+39
6.252125e+40
4.835857e+40
2.414284e+41
4.199621e+40
3.588851e+40
1.494397e+40
2.412786e+41
1.236313e+42
1.020621e+42
1.351455e+40
5.837700e+41
8.757292e+41
3.801213e+41
8.493510e+40
1.484885e+40
5.898737e+41
1.346254e+42
7.798267e+41
1.767604e+41
1.112802e+41
3.579900e+40
3.629179e+41
1.928182e+42
9.891950e+41
1.383289e+41
1.424697e+42
4.985123e+41
3.082784e+40
8.243581e+40
5.541905e+40
9.767064e+40
3.268827e+41
2.820154e+42
3.453151e+42
7.583568e+41
1.160584e+41
5.731874e+41
1.145289e+41
6.672204e+40
3.953365e+41
6.253886e+41
4.899162e+41
6.934343e+40
6.628732e+40
2.421978e+41
3.403052e+41
8.951751e+41
1.965962e+42
1.546886e+42
1.195018e+41
1.840934e+41
1.026659e+41
8.228191e+40
1.728321e+41
1.684956e+40
2.541332e+41
9.337438e+37
8.498748e+41
1.616381e+42
5.049171e+41
6.291568e+39
1.014047e+41
1.954083e+39
2.284673e+41
2.306157e+41
6.774798e+39
7.967746e+41
1.615482e+42
4.633709e+41
3.539304e+41
2.332534e+42
1.878616e+42
2.098530e+41
7.279267e+40
1.482358e+41
9.632037e+40
3.069469e+41
8.959308e+41
7.823213e+41
4.259321e+40
2.465979e+41
2.971547e+41
5.150943e+39
5.800034e+41
9.815082e+41
5.207783e+41
9.988111e+40
1.991895e+40
3.457716e+40
2.577694e+39
2.682353e+41
1.346111e+42
1.637836e+42
6.358692e+41
1.689323e+40
1.766066e+41
4.891536e+41
1.279243e+41
4.906680e+41
2.702527e+42
2.212159e+42
2.993502e+41
2.765394e+39
5.566099e+40
4.043494e+39
7.365234e+41
2.144103e+42
8.502555e+41
1.042620e+39
6.111612e+40
5.468941e+40
2.668829e+41
4.774422e+40
3.929495e+40
1.934203e+40
2.274516e+41
1.197774e+42
9.786038e+41
1.086635e+40
5.815295e+41
8.661630e+41
3.742884e+41
7.799257e+40
2.015341e+40
6.119556e+41
1.341351e+42
7.540442e+41
1.612913e+41
1.000359e+41
3.223406e+40
3.589126e+41
1.889932e+42
9.564748e+41
1.497760e+41
1.451537e+42
4.993750e+41
3.619311e+40
9.615383e+40
4.664512e+40
8.972667e+40
3.386635e+41
2.840222e+42
3.440231e+42
7.382473e+41
1.255617e+41
5.941918e+41
1.233977e+41
6.478945e+40
4.124286e+41
6.643477e+41
5.161176e+41
7.180537e+40
6.857841e+40
2.513236e+41
3.587423e+41
9.322366e+41
1.999999e+42
1.538148e+42
1.084859e+41
2.043163e+41
1.245447e+41
5.134156e+40
8.255402e+40
1.585065e+41
1.006596e+42
6.221755e+41
2.445200e+39
1.460540e+41
7.085210e+40
1.252102e+40
8.173806e+40
2.447934e+41
1.012013e+41
3.265914e+40
4.345600e+41
9.377374e+41
1.125057e+42
4.718139e+41
9.769181e+40
2.031491e+42
2.831553e+42
5.702455e+41
2.151898e+41
6.731785e+41
1.218173e+41
2.663616e+40
5.737584e+41
1.383553e+42
2.169607e+41
4.973695e+41
7.425662e+41
2.790860e+40
1.152252e+42
9.799495e+41
2.170037e+41
8.603268e+40
1.439839e+41
5.700185e+40
3.060811e+40
3.846384e+41
9.818004e+41
1.381754e+42
8.395276e+41
2.579581e+40
4.664149e+41
1.066542e+42
3.543526e+41
1.408194e+41
1.357674e+42
1.450359e+42
5.252617e+41
1.856642e+41
1.567445e+41
2.492515e+39
1.060583e+42
2.425533e+42
8.283080e+41
2.061847e+40
1.181686e+41
9.090016e+40
4.384424e+41
3.562162e+40
1.528388e+41
3.469185e+40
4.374752e+41
1.459503e+42
7.485127e+41
1.868281e+32
4.085113e+41
6.320196e+41
4.898242e+41
1.792706e+41
3.547772e+40
8.058872e+41
1.221276e+42
5.508759e+41
1.933889e+41
2.064906e+41
3.424664e+40
4.889206e+41
1.890379e+42
7.946527e+41
1.394832e+41
1.206126e+42
4.733935e+41
1.159030e+40
8.122095e+40
2.667226e+40
9.400994e+40
2.501997e+41
2.760734e+42
3.653465e+42
7.688270e+41
1.597900e+41
5.951845e+41
8.152580e+40
7.929752e+40
3.581732e+41
6.205496e+41
5.440359e+41
6.910646e+40
9.389658e+40
2.606783e+41
3.102205e+41
9.054184e+41
2.167232e+42
1.841920e+42
3.220883e+41
3.124307e+39
2.327518e+41
1.537260e+42
1.399810e+42
3.594528e+39
1.369962e+42
2.001589e+42
3.437142e+41
1.820932e+41
6.090463e+41
2.135129e+41
5.121236e+39
2.346532e+39
6.278803e+40
3.745491e+40
1.504352e+41
1.348586e+42
1.942954e+42
4.459199e+41
3.603442e+41
2.225238e+42
2.048906e+42
3.851839e+41
6.388952e+40
3.764665e+41
2.158180e+41
1.263532e+41
4.541918e+41
9.547494e+41
2.644106e+41
2.474951e+41
7.286457e+41
1.272168e+36
1.123357e+42
1.305582e+42
2.257983e+41
1.534425e+40
1.089480e+41
1.438797e+41
1.321928e+40
5.349528e+41
1.081622e+42
1.180233e+42
8.789099e+41
1.759262e+41
1.445388e+41
6.764977e+41
1.427729e+41
3.571408e+41
1.365959e+42
8.963629e+41
2.676603e+41
2.529718e+41
3.329133e+41
4.778160e+38
1.289946e+42
2.618441e+42
7.608025e+41
4.476758e+40
1.497342e+41
9.743850e+40
5.306959e+41
5.662932e+40
1.815307e+41
5.592286e+40
4.895842e+41
1.618074e+42
6.726190e+41
1.123873e+40
4.159553e+41
5.141119e+41
4.907124e+41
2.557489e+41
3.419935e+40
9.850846e+41
1.301872e+42
4.619902e+41
1.735061e+41
2.603210e+41
3.642271e+40
6.098231e+41
1.991698e+42
6.881373e+41
1.722592e+41
1.127106e+42
4.558227e+41
2.323808e+39
6.590626e+40
1.098919e+40
6.588688e+40
2.302199e+41
2.717679e+42
3.833187e+42
8.238068e+41
1.903000e+41
6.507782e+41
7.239009e+40
8.428058e+40
3.123689e+41
5.877302e+41
6.241837e+41
1.230176e+41
3.745799e+40
6.702265e+40
1.362692e+39
2.422661e+40
2.733294e+41
2.374035e+41
1.102971e+40
5.356133e+40
1.241407e+42
3.029675e+42
1.173691e+42
2.301666e+41
2.320323e+42
1.467054e+42
2.014200e+40
2.820022e+41
2.077439e+41
4.340647e+40
6.589569e+40
1.417767e+41
4.656675e+40
2.083104e+40
2.677875e+41
9.237032e+41
1.796873e+42
1.137521e+42
6.112518e+39
1.492149e+42
1.611838e+42
1.159147e+41
1.588429e+41
1.040070e+41
3.881023e+39
1.670481e+41
1.196489e+42
1.315608e+42
6.356929e+40
5.350180e+41
5.679167e+41
3.048691e+40
1.046594e+42
1.026887e+42
2.250563e+41
4.511990e+40
1.353921e+41
1.337524e+41
1.625444e+40
5.657346e+41
1.133119e+42
1.161053e+42
8.536022e+41
2.041653e+41
1.266643e+41
7.731493e+41
1.997262e+41
3.808246e+41
1.477336e+42
8.306444e+41
2.111040e+41
2.918387e+41
4.280008e+41
8.931441e+38
1.408766e+42
2.547997e+42
6.764622e+41
2.972720e+40
9.422077e+40
9.282842e+40
4.420054e+41
5.689404e+40
1.482892e+41
6.950803e+40
4.018410e+41
1.642411e+42
7.855985e+41
8.385126e+39
4.542389e+41
4.855953e+41
4.158489e+41
2.558697e+41
1.931045e+40
9.723131e+41
1.361843e+42
4.376352e+41
1.344887e+41
2.603372e+41
5.697141e+40
5.774700e+41
2.029979e+42
6.758123e+41
1.938858e+41
1.102503e+42
3.994138e+41
4.281831e+39
5.917811e+40
1.129960e+40
6.175051e+40
2.105364e+41
2.585415e+42
3.775189e+42
8.411922e+41
1.934777e+41
6.714596e+41
6.394688e+40
1.139699e+41
3.747790e+41
6.985963e+41
8.187537e+41
2.423872e+41
7.575056e+39
5.082559e+40
4.980035e+39
5.243373e+40
3.417065e+41
2.239575e+41
1.646018e+38
2.420212e+40
1.299029e+42
3.325357e+42
1.232370e+42
2.789345e+41
2.408571e+42
1.355152e+42
7.140957e+39
2.698865e+41
1.601084e+41
3.457021e+40
7.604448e+40
1.446563e+41
3.573469e+40
2.274346e+40
2.283309e+41
8.494524e+41
1.810182e+42
1.192218e+42
5.474498e+39
1.502509e+42
1.556208e+42
9.412636e+40
1.605294e+41
8.765968e+40
2.382783e+39
1.720303e+41
1.179359e+42
1.252282e+42
5.674237e+40
5.153005e+41
5.448589e+41
3.221164e+40
1.073470e+42
1.074631e+42
2.288630e+41
3.494738e+40
1.171826e+41
1.294768e+41
1.668214e+40
5.774292e+41
1.122532e+42
1.103196e+42
8.067862e+41
2.001336e+41
1.233835e+41
7.736527e+41
1.956686e+41
4.036167e+41
1.521874e+42
8.416916e+41
2.136583e+41
2.985069e+41
4.228982e+41
2.760128e+39
1.467955e+42
2.571253e+42
6.642069e+41
3.364832e+40
1.033066e+41
8.163883e+40
4.256239e+41
5.886072e+40
1.367553e+41
6.109580e+40
4.222714e+41
1.679080e+42
7.937806e+41
1.003094e+40
4.722969e+41
4.997858e+41
4.288676e+41
2.696371e+41
1.652315e+40
9.735428e+41
1.387772e+42
4.596827e+41
1.480243e+41
2.737170e+41
5.636359e+40
6.024046e+41
2.088047e+42
6.992965e+41
1.877103e+41
1.101834e+42
4.125325e+41
2.017132e+39
4.960673e+40
1.364044e+40
6.190693e+40
2.152803e+41
2.615291e+42
3.826260e+42
8.646332e+41
1.883013e+41
6.884245e+41
9.342081e+40
3.343397e+40
6.830813e+40
3.449719e+40
8.204426e+39
5.389465e+41
1.451265e+42
6.063483e+41
3.530937e+40
3.236811e+41
2.156153e+39
3.232921e+41
4.498381e+41
3.859087e+41
8.342076e+41
1.603964e+42
9.582200e+41
8.871333e+39
1.462168e+42
1.977668e+42
2.733196e+41
2.949873e+41
6.373700e+41
9.252763e+40
1.229987e+39
4.199426e+40
2.015162e+41
7.417650e+39
4.437907e+41
1.432673e+42
1.564471e+42
7.132209e+41
2.438930e+38
9.857836e+41
1.659819e+42
3.104653e+41
1.414087e+41
2.478911e+41
5.720516e+39
5.084648e+40
1.102991e+42
1.708192e+42
9.542072e+40
7.431479e+41
6.354345e+41
9.454298e+40
1.161271e+42
7.934532e+41
1.656114e+41
9.378154e+40
1.746166e+41
7.380770e+40
3.051097e+40
4.276133e+41
1.000245e+42
1.324616e+42
9.557610e+41
1.511297e+41
1.537514e+41
6.373440e+41
1.484834e+41
3.215778e+41
1.377885e+42
9.271593e+41
2.438468e+41
2.298495e+41
3.648529e+41
1.087639e+38
1.316894e+42
2.658339e+42
7.182465e+41
4.870663e+40
1.203070e+41
1.153320e+41
4.956534e+41
4.818607e+40
1.625448e+41
5.306304e+40
4.330297e+41
1.551857e+42
7.102506e+41
1.048768e+40
5.132319e+41
7.088464e+41
7.816885e+41
6.732006e+41
6.566716e+40
3.487266e+41
9.301526e+41
5.882951e+41
4.236007e+41
4.952422e+41
3.458336e+40
9.486280e+41
2.468529e+42
5.663816e+41
3.980713e+41
1.258005e+42
2.538252e+41
3.750161e+40
3.149054e+40
6.433711e+40
5.233788e+40
4.051197e+41
2.928584e+42
3.784483e+42
1.231228e+42
2.319224e+40
1.165750e+39
3.552586e+41
9.780972e+41
6.059603e+41
1.232374e+40
5.348011e+41
1.758879e+42
1.274744e+42
3.724722e+40
2.753781e+41
7.706334e+40
1.790608e+41
3.616492e+41
8.745106e+40
1.484785e+41
1.190464e+42
2.338272e+42
8.510359e+41
1.323616e+41
1.615489e+42
1.390076e+42
1.393999e+41
1.601148e+41
4.066798e+41
1.666747e+41
1.955153e+40
1.650754e+40
5.847108e+40
9.100413e+39
2.316840e+41
1.375221e+42
1.968570e+42
7.416531e+41
3.285036e+40
1.081852e+42
1.285669e+42
2.282141e+41
7.272901e+40
2.009888e+41
3.948408e+40
8.832868e+40
8.941629e+41
1.509192e+42
1.489341e+41
6.550001e+41
7.946133e+41
5.695371e+40
1.355550e+42
9.563612e+41
1.292073e+41
6.278417e+40
2.237762e+41
1.023594e+41
5.952268e+40
5.279714e+41
9.203463e+41
1.174551e+42
9.467980e+41
1.167979e+41
3.541334e+41
1.177080e+42
4.102918e+41
1.209352e+41
1.027550e+42
9.754224e+41
5.155777e+41
4.585217e+41
3.251869e+41
2.830829e+40
1.530603e+42
2.449653e+42
5.775056e+41
4.620738e+40
7.448627e+40
1.453418e+41
4.303771e+41
1.718951e+40
1.807307e+41
2.595042e+40
5.101009e+41
1.470199e+42
6.428220e+41
2.499416e+39
4.047434e+41
7.385870e+41
9.227945e+41
6.760931e+41
3.922210e+40
3.336940e+41
7.800676e+41
5.689634e+41
5.299113e+41
5.516118e+41
2.130241e+40
9.761016e+41
2.317212e+42
5.483222e+41
3.223703e+41
1.173615e+42
3.017564e+41
1.518926e+40
7.068829e+39
2.654861e+41
6.187338e+41
3.629930e+40
5.602428e+41
1.122090e+42
3.937922e+41
1.112997e+41
4.967478e+41
1.296994e+42
8.318505e+41
6.254409e+40
5.595502e+40
2.924022e+41
8.307565e+41
1.094405e+42
2.704042e+41
7.367773e+40
2.109773e+41
7.027616e+39
3.640858e+41
3.627308e+41
2.483055e+41
7.386469e+41
1.905336e+42
1.270474e+42
2.207474e+40
1.950880e+42
1.963216e+42
9.275169e+40
3.648255e+41
3.417190e+41
3.517462e+40
2.075392e+40
1.126807e+41
7.908280e+40
4.096143e+39
2.583996e+41
1.030880e+42
1.875120e+42
1.046868e+42
1.247232e+40
1.345830e+42
1.420213e+42
1.399873e+41
9.423836e+40
1.038608e+41
1.568136e+40
1.468494e+41
9.985065e+41
1.311015e+42
1.153214e+41
5.139306e+41
6.755078e+41
3.242120e+40
1.242759e+42
1.059725e+42
1.487944e+41
2.989420e+40
1.766604e+41
1.419131e+41
3.832421e+40
6.069981e+41
1.066020e+42
1.300441e+42
1.328574e+42
5.419972e+41
1.370344e+40
5.128276e+41
2.141691e+41
9.632812e+40
6.055288e+41
5.396965e+41
5.010212e+41
8.321197e+41
5.387102e+41
8.527372e+40
2.126654e+42
2.471214e+42
3.184897e+41
1.090419e+41
3.214219e+40
2.584353e+41
4.021257e+41
8.983753e+38
1.800901e+41
2.869382e+39
5.794656e+41
1.271179e+42
5.107577e+41
5.689631e+38
3.336866e+41
8.013524e+41
1.088829e+42
6.783084e+41
2.240226e+40
2.709237e+41
4.726076e+41
2.785211e+41
2.606343e+41
2.406011e+41
4.487978e+39
9.799230e+41
1.799559e+42
4.642060e+41
6.182858e+40
1.770582e+41
7.920631e+40
1.021091e+42
8.075223e+41
1.951873e+39
7.972438e+41
5.643341e+41
5.518510e+40
1.140027e+42
1.262521e+42
5.622014e+41
3.009423e+41
3.871211e+41
5.240431e+41
3.842672e+41
1.357272e+40
5.288293e+41
1.696543e+42
9.891549e+41
1.433194e+40
1.276617e+41
1.251639e+40
7.216932e+40
1.248958e+41
1.614253e+41
4.872776e+41
1.155198e+42
1.477143e+42
7.667213e+41
4.382105e+39
1.398377e+42
2.148835e+42
2.626978e+41
4.180038e+41
6.309722e+41
3.653639e+40
5.353191e+38
1.118873e+41
1.867389e+41
5.267953e+39
4.574635e+41
1.087907e+42
1.510571e+42
9.722632e+41
1.478985e+37
1.319158e+42
1.731848e+42
1.626737e+41
1.802116e+41
1.404057e+41
2.599005e+39
1.343854e+41
1.198796e+42
1.392782e+42
6.661570e+40
5.729535e+41
5.840609e+41
3.751988e+40
1.074611e+42
9.989478e+41
2.107120e+41
4.930455e+40
1.473593e+41
1.280283e+41
2.242526e+40
5.869283e+41
1.197770e+42
1.393776e+42
1.259130e+42
5.088333e+41
8.710293e+39
5.143371e+41
2.678953e+41
7.671154e+40
6.408513e+41
5.590232e+41
4.641265e+41
8.211337e+41
6.011603e+41
6.857145e+40
2.163851e+42
2.507380e+42
3.071520e+41
1.024525e+41
1.933261e+40
2.767703e+41
3.716021e+41
7.268377e+37
1.779134e+41
3.938866e+39
5.323299e+41
1.245300e+42
5.460937e+41
1.378593e+37
3.383829e+41
7.953091e+41
1.034890e+42
6.510679e+41
2.617386e+40
2.535725e+41
4.642839e+41
2.654369e+41
2.383129e+41
2.369119e+41
1.782206e+39
9.312726e+41
1.782536e+42
4.605851e+41
6.522532e+40
1.692483e+41
1.021198e+41
1.142783e+42
9.869482e+41
2.399189e+40
2.572839e+41
1.791502e+40
1.133185e+42
3.992160e+42
3.758490e+42
1.439760e+42
2.452984e+41
2.198480e+40
1.965289e+40
1.443845e+41
3.855249e+41
3.210022e+41
9.070107e+40
4.619317e+40
1.550853e+41
2.466133e+41
6.019114e+40
1.126254e+41
9.731575e+41
1.375351e+42
2.269453e+41
2.725904e+41
3.524239e+41
4.728656e+40
4.547329e+40
1.613464e+42
4.840149e+42
4.845921e+41
2.788668e+42
3.292094e+42
1.082201e+41
3.369209e+42
1.377725e+42
1.640465e+39
3.284516e+38
6.670991e+41
1.326176e+42
4.428121e+41
3.325326e+40
7.344603e+41
5.338429e+41
1.570885e+41
2.179310e+42
1.485440e+42
9.844254e+39
1.055300e+40
8.967875e+41
2.200503e+42
1.498896e+41
9.654878e+41
6.449113e+41
2.680459e+41
1.046845e+42
8.819733e+37
1.392208e+42
1.262522e+42
1.590091e+39
6.232456e+41
4.117153e+41
8.868470e+39
5.039217e+41
1.039002e+42
1.681866e+42
2.737742e+42
3.156247e+42
1.738133e+42
1.661337e+41
1.436442e+41
2.589987e+41
3.838729e+39
7.407579e+41
1.659428e+42
1.302581e+42
5.754817e+41
2.817059e+41
1.255055e+41
1.398805e+40
5.347390e+41
7.468850e+41
1.540460e+41
2.320268e+36
1.352596e+40
3.087967e+40
2.012081e+41
1.516837e+42
1.205301e+42
4.870336e+37
9.373573e+41
7.658125e+41
1.003765e+40
1.248988e+42
2.053002e+42
8.565738e+41
9.465853e+40
1.966281e+41
1.110123e+42
6.540461e+41
3.892784e+41
2.467722e+42
2.966697e+41
1.854602e+42
3.276837e+42
2.651744e+41
2.252882e+41
3.281791e+40
1.857642e+42
1.641799e+42
1.257885e+40
1.451783e+42
5.049598e+41
8.605114e+41
4.361401e+42
3.329670e+42
8.540237e+41
5.069281e+41
1.248480e+42
8.779392e+41
1.053765e+38
1.677038e+41
1.487893e+41
1.338641e+42
5.281034e+41
2.561094e+40
9.176082e+39
4.988555e+41
5.893363e+41
1.402908e+41
2.170054e+42
1.610986e+42
6.907016e+39
4.346345e+41
5.534788e+40
1.777376e+41
5.875477e+39
2.271000e+42
3.930171e+42
2.233398e+41
2.170032e+42
2.468846e+42
2.922622e+40
2.484858e+42
1.606874e+42
3.285477e+40
1.001736e+40
3.723143e+41
1.515737e+42
7.758596e+41
6.104009e+40
1.296952e+42
8.928064e+41
5.830255e+38
1.804644e+41
2.906058e+41
3.467443e+42
3.105651e+42
6.404658e+38
3.017076e+42
2.787474e+42
3.184895e+40
8.571473e+41
3.898490e+41
8.949946e+40
2.397240e+41
8.495621e+40
1.044176e+42
5.427507e+41
1.133605e+41
1.052295e+42
2.571641e+41
5.779591e+41
2.482884e+42
2.176151e+42
1.491162e+42
2.221328e+42
2.775787e+42
6.384277e+41
3.500006e+41
8.515536e+41
2.886471e+40
1.580069e+42
1.522118e+42
5.418007e+41
5.412399e+41
8.281489e+41
1.947184e+41
1.895755e+41
6.721238e+41
3.178148e+41
8.307879e+40
8.380671e+40
6.842574e+40
3.631976e+39
3.416211e+41
1.048256e+42
9.646931e+41
4.522131e+40
6.682526e+41
1.092605e+42
8.137313e+38
1.630442e+42
2.406794e+42
5.847049e+41
2.862568e+40
3.179846e+41
1.365521e+42
4.916117e+41
5.069841e+41
2.080378e+42
1.884561e+41
1.580382e+42
2.895106e+42
3.491567e+41
1.606348e+41
7.288603e+39
1.636241e+42
1.886329e+42
1.328328e+38
1.578688e+42
5.930178e+41
1.005296e+42
4.666357e+42
3.081756e+42
6.906385e+41
4.941784e+41
1.098369e+42
4.327075e+41
1.646028e+41
5.949630e+41
5.197728e+39
8.775693e+41
5.897474e+41
2.116355e+40
2.402514e+40
3.917968e+41
2.397515e+41
2.555221e+41
1.821094e+42
1.189475e+42
2.734801e+39
3.100221e+41
2.660575e+40
1.287545e+41
3.781599e+40
2.294352e+42
3.475372e+42
1.609318e+41
1.962377e+42
2.242664e+42
1.132104e+40
2.215749e+42
1.765174e+42
9.352898e+40
1.247775e+40
2.510760e+41
1.493326e+42
9.310597e+41
6.468184e+40
1.547005e+42
9.261752e+41
1.561435e+40
2.217829e+41
3.577795e+41
3.520812e+42
2.825300e+42
3.717891e+39
2.785719e+42
2.647209e+42
4.976083e+40
8.250395e+41
4.760461e+41
6.993706e+40
3.033863e+41
5.618440e+40
1.095506e+42
5.794234e+41
1.380794e+41
1.090936e+42
2.076783e+41
6.501781e+41
2.422032e+42
2.104577e+42
1.557248e+42
2.335769e+42
2.877519e+42
8.196297e+41
1.215377e+41
3.734282e+41
1.966944e+41
2.110338e+42
1.839053e+42
6.649496e+41
7.509346e+41
1.373606e+42
5.202325e+41
1.563697e+41
1.187710e+42
7.380643e+41
7.894607e+40
3.665906e+38
6.022018e+39
1.830101e+39
1.456725e+41
1.011494e+42
1.271242e+42
5.507970e+40
1.139591e+42
1.977805e+42
1.028513e+41
9.756284e+41
1.345455e+42
2.046233e+41
5.685099e+40
9.185987e+41
2.096363e+42
3.429230e+41
1.012992e+42
2.390918e+42
9.053710e+40
1.931129e+42
2.827339e+42
2.441589e+41
1.902393e+41
2.246310e+40
1.873919e+42
1.910547e+42
1.010001e+40
1.767944e+42
5.390796e+41
1.135290e+42
4.485880e+42
2.759443e+42
7.130566e+41
6.503752e+41
1.145480e+42
3.385508e+41
1.728058e+41
4.667335e+41
8.437210e+39
6.971262e+41
5.029926e+41
4.458857e+40
4.164771e+40
3.271129e+41
2.099394e+41
1.845518e+41
1.662692e+42
1.309724e+42
1.334029e+40
3.393058e+41
3.653785e+40
1.725469e+41
1.913383e+40
2.394880e+42
3.648300e+42
1.371464e+41
2.121858e+42
2.371358e+42
5.795789e+39
8.699779e+41
7.356569e+40
1.608405e+42
4.259573e+42
1.789781e+42
7.845204e+40
1.913244e+42
1.110085e+42
5.365992e+40
1.234060e+42
7.769486e+41
5.266856e+40
5.999560e+40
1.027775e+42
2.157664e+42
3.917581e+41
1.191641e+42
3.901043e+42
8.422688e+41
8.723070e+41
1.749529e+42
8.528526e+39
1.196133e+42
5.692887e+39
2.196301e+42
1.392764e+42
4.304348e+41
2.182969e+42
7.848672e+40
1.483222e+42
2.061998e+42
1.061234e+42
1.658384e+42
3.704458e+42
2.982245e+42
3.298561e+41
1.428156e+41
7.961364e+40
2.660749e+41
1.347735e+42
1.592936e+42
1.127520e+42
8.933026e+41
8.551705e+41
3.840501e+41
2.913182e+40
9.323904e+41
1.063628e+42
1.414555e+41
2.213687e+40
1.236112e+38
4.597149e+40
7.149508e+40
1.288589e+42
1.493256e+42
1.478039e+40
1.288458e+42
1.614368e+42
4.926645e+40
7.954225e+41
1.177269e+42
2.978692e+41
9.170410e+40
7.329450e+41
1.857468e+42
4.276235e+41
8.904173e+41
2.583313e+42
1.147992e+41
2.179986e+42
3.041742e+42
1.822469e+41
2.492947e+41
3.688083e+40
1.959100e+42
1.734389e+42
2.065560e+40
1.600679e+42
4.511559e+41
1.079641e+42
4.385884e+42
2.936634e+42
7.822320e+41
5.835976e+41
1.054420e+42
3.637417e+41
1.633364e+41
5.502301e+41
7.522446e+38
6.450897e+41
3.779339e+41
5.641384e+38
9.169814e+39
1.122004e+41
1.155981e+41
1.713295e+41
1.319043e+42
9.794198e+41
1.267446e+40
1.862793e+41
8.419188e+39
1.038008e+41
8.993693e+40
2.469296e+42
3.234397e+42
9.137497e+40
1.959178e+42
2.166119e+42
1.285924e+40
7.090753e+41
6.635844e+40
1.418977e+42
4.033564e+42
1.865028e+42
5.841286e+40
1.984209e+42
1.193643e+42
6.918657e+40
1.390438e+42
7.901943e+41
3.203582e+40
5.089300e+40
1.078580e+42
2.132241e+42
3.239379e+41
1.247260e+42
3.768864e+42
8.037753e+41
8.277173e+41
1.734409e+42
2.155812e+39
1.124954e+42
1.018425e+40
2.092318e+42
1.382744e+42
4.529907e+41
2.420432e+42
1.675443e+41
1.065984e+42
1.284705e+42
3.718583e+41
8.026585e+41
3.052618e+42
3.308593e+42
6.702540e+41
3.536946e+40
9.528316e+40
8.997296e+40
9.745487e+41
1.770102e+42
1.630641e+42
1.044842e+42
6.145565e+41
2.484280e+41
7.296992e+39
6.794686e+41
1.148388e+42
2.908854e+41
1.271542e+40
1.855884e+40
2.075814e+40
3.630297e+40
1.163995e+42
1.698131e+42
4.221313e+40
1.411213e+42
1.859925e+42
4.245856e+40
9.190891e+41
1.122872e+42
2.149192e+41
9.294501e+40
8.705179e+41
1.919752e+42
3.747759e+41
8.877915e+41
2.416949e+42
1.155215e+41
1.981887e+42
2.932398e+42
2.146819e+41
2.311768e+41
2.665686e+40
1.962183e+42
1.884105e+42
1.292844e+40
1.680902e+42
4.845340e+41
1.120016e+42
4.408782e+42
2.802794e+42
7.325393e+41
6.088861e+41
1.085808e+42
3.478348e+41
1.612667e+41
4.921303e+41
2.868547e+39
6.108713e+41
3.434829e+41
6.453308e+38
9.642422e+39
9.664263e+40
1.080279e+41
1.505572e+41
1.249193e+42
9.671624e+41
1.247923e+40
1.980962e+41
9.136860e+39
1.180454e+41
7.742649e+40
2.461257e+42
3.224585e+42
8.123476e+40
1.985303e+42
2.115352e+42
7.698133e+39
7.298138e+41
6.865600e+40
1.409346e+42
4.067114e+42
1.934325e+42
4.849366e+40
1.977034e+42
1.207782e+42
6.600358e+40
1.357117e+42
7.478382e+41
2.681091e+40
5.418608e+40
1.126980e+42
2.249407e+42
4.268408e+41
9.144739e+41
2.893965e+42
3.734100e+41
1.360267e+42
2.079809e+42
1.365349e+40
1.598194e+42
6.749352e+40
2.165390e+42
1.793441e+42
3.088006e+41
2.554545e+42
2.782805e+41
1.006451e+42
1.485320e+42
4.454104e+41
6.796332e+41
2.679393e+42
3.300238e+42
8.195756e+41
2.557481e+40
1.402973e+41
7.201369e+40
1.124186e+42
1.958935e+42
1.534594e+42
8.988911e+41
6.188847e+41
2.922520e+41
1.103580e+40
7.709580e+41
1.116634e+42
2.203380e+41
1.777143e+40
9.674889e+39
2.358482e+40
4.863811e+40
1.143148e+42
1.545645e+42
3.139622e+40
1.349421e+42
1.831396e+42
5.545872e+40
9.087860e+41
1.216652e+42
2.444778e+41
8.463865e+40
8.462295e+41
1.949738e+42
3.652401e+41
9.655781e+41
2.480950e+42
9.958481e+40
2.050889e+42
2.923861e+42
2.193760e+41
2.045136e+41
3.008869e+40
1.877576e+42
1.797128e+42
1.407521e+40
1.692329e+42
5.177805e+41
1.090504e+42
4.474721e+42
2.867432e+42
7.368475e+41
6.193274e+41
1.134500e+42
3.601926e+41
1.801573e+41
5.357507e+41
1.914245e+39
6.126096e+41
3.393152e+41
4.650840e+38
5.669433e+39
1.121832e+41
1.104870e+41
1.626749e+41
1.333127e+42
1.179845e+42
1.377026e+41
1.129715e+40
8.402826e+41
3.680108e+42
2.860165e+42
5.598479e+40
8.101804e+41
4.815885e+41
1.746040e+40
1.807065e+41
3.222995e+40
5.172902e+39
6.521553e+40
2.209920e+41
4.645304e+41
6.018216e+41
7.291897e+40
6.043141e+41
1.460428e+42
3.999692e+40
1.471309e+42
1.706806e+42
3.801743e+40
4.070294e+40
9.200445e+41
3.821860e+42
7.793302e+41
1.877515e+42
4.197214e+42
9.132965e+40
2.411217e+42
1.456234e+42
2.846980e+41
1.199250e+42
3.717267e+40
1.976871e+42
8.365869e+41
3.077077e+41
1.484138e+42
2.614945e+41
3.906849e+41
1.329455e+42
1.033647e+42
8.681121e+41
1.792413e+42
2.864059e+42
1.244753e+42
3.414404e+40
7.268020e+41
2.020998e+40
1.026499e+42
1.888716e+42
1.161579e+42
1.013584e+42
1.274442e+42
4.368739e+41
1.594325e+41
1.179430e+42
7.294958e+41
5.900746e+40
1.148989e+38
1.458748e+40
1.349846e+40
1.484305e+41
1.219274e+42
1.571577e+42
1.527903e+41
5.929243e+41
8.089068e+41
9.333461e+40
2.471177e+42
2.653615e+42
7.157059e+41
3.728948e+41
1.719341e+42
3.028891e+42
5.395244e+41
1.275820e+42
4.082923e+42
1.039234e+42
4.702590e+41
1.375997e+42
1.907459e+40
6.327165e+41
9.072744e+40
7.008559e+41
6.893789e+41
3.449665e+41
2.909994e+42
1.181043e+42
3.537825e+41
2.399249e+42
1.371755e+42
2.332760e+41
1.565305e+41
2.518022e+41
1.579948e+38
6.907675e+41
1.127598e+42
1.839253e+41
5.692854e+40
3.826813e+40
7.941019e+40
1.805677e+41
1.202133e+40
2.071823e+39
5.732990e+41
2.825358e+42
3.016766e+42
7.646204e+41
1.656446e+41
1.582059e+42
5.946512e+42
5.050809e+42
4.803171e+41
2.296883e+41
4.837725e+40
3.970557e+41
8.195601e+41
4.307112e+41
2.865871e+41
4.565079e+41
7.952185e+41
1.365520e+42
1.647087e+42
5.170841e+41
1.187677e+41
5.041004e+41
9.135446e+40
2.504576e+42
2.320213e+42
8.447689e+40
1.081492e+41
2.254221e+41
1.461471e+42
2.669346e+40
3.548179e+42
5.768681e+42
3.846342e+41
1.368912e+42
4.832084e+41
1.279010e+42
2.608926e+42
3.096720e+40
1.059617e+42
1.373951e+41
1.323713e+42
2.725151e+42
6.845420e+41
3.765235e+40
3.369874e+41
2.564882e+41
3.024125e+41
8.342148e+41
1.298797e+42
3.534452e+41
3.028075e+41
1.355305e+42
2.648514e+41
4.114569e+41
1.131734e+42
5.012992e+41
2.088584e+41
2.547153e+41
2.442892e+40
6.050894e+41
2.225344e+42
1.843752e+42
5.921270e+41
2.134121e+41
2.967795e+41
2.862581e+41
5.341669e+39
3.267317e+41
4.225588e+41
7.004290e+40
2.322320e+42
3.381888e+42
6.272399e+41
2.440171e+41
4.986484e+41
1.654716e+39
2.355310e+40
4.208534e+41
1.812052e+42
5.907427e+41
2.991103e+41
7.775625e+41
1.767484e+41
3.894638e+42
4.167416e+42
5.828728e+41
1.382408e+39
5.360136e+41
3.878317e+42
3.369171e+42
5.944868e+40
8.474935e+41
3.516138e+40
2.686495e+42
6.801861e+42
4.615870e+42
2.288937e+42
2.855414e+42
3.978862e+42
1.861718e+42
2.603916e+40
1.244650e+41
7.827131e+39
2.226438e+41
1.809793e+39
6.352679e+41
1.524109e+42
9.471059e+41
6.877416e+40
1.976211e+41
5.144744e+41
1.704083e+41
4.067407e+40
5.566006e+41
1.040083e+42
8.399810e+41
1.621366e+41
6.688431e+40
4.405051e+41
5.851461e+41
6.043797e+41
4.240941e+41
8.317283e+40
1.686267e+40
3.394861e+41
9.954052e+41
2.071025e+41
2.098116e+41
3.835361e+40
1.380071e+42
2.859116e+42
1.899945e+41
9.340027e+41
7.683299e+41
1.873057e+40
3.240062e+41
4.018882e+42
6.099717e+42
1.054755e+42
8.327876e+41
1.748470e+42
1.329296e+40
2.959534e+42
2.937179e+42
7.492280e+40
3.938258e+41
7.933772e+40
3.187089e+42
3.025186e+42
5.259376e+39
1.104497e+42
5.367946e+40
1.817399e+42
3.329299e+42
1.592197e+42
1.360955e+42
3.865709e+42
5.683969e+42
2.194474e+42
1.727716e+40
3.588762e+40
4.323176e+41
2.425713e+42
3.149520e+42
2.634047e+42
2.433273e+42
2.060508e+42
8.452641e+41
2.205400e+40
1.520574e+41
1.489483e+41
1.330359e+39
1.957985e+41
2.498062e+41
1.800681e+41
6.157554e+41
2.495546e+42
3.588961e+42
1.090382e+42
5.582985e+40
2.752666e+41
1.829179e+41
1.885262e+42
1.663375e+42
4.815104e+41
5.745784e+41
2.407075e+42
3.289393e+42
3.503589e+41
1.724158e+42
4.147636e+42
7.359575e+41
6.464154e+41
1.173977e+42
1.133640e+38
5.705606e+41
1.753445e+40
7.237489e+41
4.362530e+41
4.343531e+41
2.479172e+42
9.910727e+41
2.560863e+41
2.269678e+42
1.905154e+42
6.551074e+41
4.492910e+41
6.762246e+41
2.000904e+41
3.191837e+41
1.643852e+42
1.093384e+42
2.407449e+41
4.738556e+41
2.708907e+42
5.357482e+42
3.938284e+42
1.145798e+42
1.772856e+41
1.212973e+41
3.822022e+41
1.090839e+42
2.599454e+42
4.375653e+42
4.218690e+42
2.161384e+42
7.486922e+41
3.437593e+41
1.405813e+41
2.762490e+39
1.860240e+39
3.164716e+41
8.087404e+41
2.059150e+41
1.604021e+39
1.898590e+41
1.686454e+42
1.111688e+42
4.139272e+40
4.549157e+41
1.651993e+41
2.369959e+42
1.543098e+42
3.738900e+40
1.785145e+37
5.696530e+41
9.472021e+41
3.921706e+40
3.110917e+42
4.125633e+42
4.324570e+41
6.423226e+41
4.202514e+41
6.380406e+41
2.267851e+42
1.985028e+41
8.235123e+41
3.680691e+41
1.030797e+42
3.462906e+42
9.730223e+41
1.253256e+41
5.322803e+41
1.423120e+41
1.774555e+41
1.090416e+42
1.661109e+42
2.572212e+41
4.539639e+41
1.177447e+42
1.636027e+41
3.141936e+41
8.907931e+41
5.818385e+41
3.141279e+41
2.119326e+41
5.259005e+39
5.223137e+41
1.954499e+42
1.952027e+42
7.355309e+41
1.925242e+41
2.262105e+41
3.034163e+41
7.852554e+39
5.182740e+41
8.861658e+41
4.287157e+39
1.310630e+42
2.018443e+42
2.928075e+41
1.498686e+41
1.382422e+41
3.816114e+40
2.511212e+40
4.831344e+41
1.374339e+42
6.591401e+40
1.577975e+42
2.096112e+42
7.949699e+40
4.912877e+42
5.506777e+42
7.818704e+41
1.038771e+40
3.403770e+41
3.351671e+42
3.351036e+42
1.802870e+41
5.587284e+41
7.120832e+40
2.012523e+42
6.785128e+42
5.686558e+42
2.551815e+42
2.156234e+42
3.358292e+42
2.324836e+42
1.216239e+41
2.149612e+41
1.017257e+40
3.110692e+41
6.230836e+40
7.014284e+41
2.060798e+42
9.474279e+41
8.519142e+39
2.009233e+41
3.044680e+41
1.546179e+41
2.414996e+39
5.320707e+41
1.485576e+42
1.192648e+42
2.503988e+41
3.946983e+38
8.123142e+40
3.316469e+41
8.529511e+41
7.645871e+41
1.181037e+41
5.004671e+39
2.802510e+41
9.077041e+41
1.962478e+41
1.394974e+41
1.126297e+40
1.220590e+42
2.367510e+42
1.965579e+41
6.594098e+41
7.041161e+41
7.085997e+40
3.751754e+41
3.485918e+42
5.678930e+42
1.266087e+42
6.784943e+41
1.945849e+42
1.458563e+39
3.216245e+42
3.260203e+42
5.083208e+40
5.055789e+41
1.066483e+41
3.617400e+42
3.308870e+42
4.735538e+40
4.690230e+41
7.178149e+40
3.000268e+42
3.862265e+42
1.409010e+42
8.888929e+41
2.989563e+42
5.506218e+42
2.856146e+42
1.024506e+41
7.738368e+40
1.803491e+41
2.311901e+42
3.894325e+42
3.075835e+42
2.109163e+42
1.659288e+42
9.137845e+41
7.658243e+40
1.543991e+41
2.589238e+41
1.364452e+37
2.914049e+41
3.266065e+41
1.383231e+41
5.208157e+41
2.619060e+42
3.825686e+42
1.016911e+42
1.022416e+41
2.815212e+41
2.319735e+41
1.882147e+42
1.523774e+42
4.792825e+41
6.753152e+41
2.485820e+42
3.138240e+42
3.267707e+41
1.633756e+42
4.105048e+42
8.204673e+41
6.008761e+41
1.248074e+42
4.055638e+38
5.966503e+41
2.085706e+40
7.743053e+41
4.527199e+41
5.156130e+41
2.877525e+42
1.502361e+42
3.898647e+38
2.227510e+41
4.706190e+40
1.299058e+42
1.243976e+42
9.077836e+39
6.878538e+41
5.122381e+41
6.601793e+40
1.434624e+42
2.357269e+42
1.955653e+42
1.566033e+42
2.014506e+42
3.148304e+42
3.050133e+42
9.226706e+41
1.400640e+38
1.845428e+39
1.213908e+42
5.078128e+42
5.214972e+42
2.392237e+42
1.350187e+42
1.595387e+42
9.529901e+41
8.694740e+39
1.443344e+41
4.126060e+40
9.560186e+41
6.622414e+41
3.496783e+39
3.713110e+37
6.736099e+41
1.765734e+42
5.046390e+41
7.220103e+40
1.406102e+41
2.259250e+41
1.567192e+42
1.315915e+42
2.032593e+41
1.299226e+40
2.845619e+41
7.598973e+41
1.680945e+38
2.722271e+42
4.900953e+42
5.912285e+41
9.164636e+41
5.459933e+41
9.161231e+41
2.553004e+42
7.714035e+40
1.136103e+42
3.630192e+41
7.871547e+41
1.981808e+42
2.332203e+41
3.903117e+41
6.880354e+41
1.469548e+41
5.294835e+40
5.543946e+41
1.560015e+42
6.591698e+41
1.985457e+41
1.525795e+42
4.334969e+41
3.407054e+41
1.323226e+42
6.571251e+41
1.692233e+41
1.320829e+41
1.979230e+40
3.916157e+41
1.958484e+42
2.122365e+42
7.648630e+41
1.551918e+41
1.937858e+41
3.421014e+41
2.329041e+40
5.122683e+41
9.929528e+41
6.891962e+39
1.422237e+42
2.070222e+42
2.345740e+41
1.810890e+41
1.093335e+41
5.325462e+40
1.453877e+40
5.250709e+41
1.255837e+42
4.232522e+40
1.488229e+42
1.941428e+42
6.977543e+40
4.757150e+42
5.648764e+42
8.597214e+41
1.692669e+40
2.807456e+41
3.368810e+42
3.443343e+42
1.453401e+41
7.522303e+41
2.321742e+41
8.615796e+41
2.535155e+42
6.130663e+41
1.262766e+41
9.629474e+40
8.201619e+41
3.509984e+42
2.574518e+42
3.199694e+41
5.633287e+40
2.258268e+41
1.967587e+41
1.762479e+41
2.825981e+41
6.061652e+41
6.253929e+41
1.152034e+40
8.062152e+41
1.088933e+42
1.012058e+40
1.814080e+42
1.922414e+42
3.248415e+41
3.246191e+40
1.366792e+41
1.430473e+40
6.350693e+41
1.502457e+42
2.316762e+41
1.827076e+41
7.629775e+40
2.975640e+41
5.600706e+41
2.680455e+40
1.493262e+40
2.118344e+41
1.313086e+42
1.056307e+42
6.859853e+40
9.546666e+40
7.053319e+40
4.927259e+38
9.122997e+40
1.530168e+42
3.711768e+42
1.663068e+42
1.189408e+41
1.341386e+42
5.849676e+39
2.426747e+42
2.738859e+42
8.255301e+40
2.160148e+41
2.115447e+41
2.893180e+42
2.439804e+42
9.586024e+40
1.636929e+41
6.429480e+40
2.129767e+42
3.710986e+42
2.101950e+42
1.087547e+42
2.295275e+42
4.949920e+42
3.463178e+42
1.946115e+41
1.836519e+41
8.402926e+40
2.662616e+42
4.393431e+42
2.768520e+42
1.810331e+42
1.899354e+42
1.154477e+42
4.509413e+40
2.559745e+41
2.213628e+41
6.768960e+39
2.448396e+41
2.351618e+41
1.688145e+41
6.602009e+41
2.573761e+42
3.576256e+42
1.060159e+42
6.736407e+40
3.073794e+41
1.735406e+41
1.905899e+42
1.642974e+42
4.551133e+41
5.943132e+41
2.530822e+42
3.332135e+42
3.244327e+41
1.789105e+42
4.448310e+42
1.244547e+42
5.096356e+40
4.889087e+39
2.414340e+42
7.360895e+42
3.839139e+42
3.707691e+39
1.093940e+42
2.493671e+41
6.966484e+41
2.594378e+42
1.746901e+42
2.330950e+41
8.585144e+38
4.188274e+40
5.203881e+41
4.006762e+41
6.168232e+40
8.627871e+41
1.115212e+41
1.382374e+42
4.206878e+42
2.439978e+42
6.851673e+41
1.398871e+42
4.552297e+42
4.204093e+42
4.597769e+41
1.302772e+41
2.202699e+40
2.089928e+42
4.467681e+42
3.757982e+42
2.688536e+42
2.277274e+42
1.518043e+42
4.601346e+41
2.487276e+40
1.517377e+39
1.867386e+41
1.045679e+42
1.403644e+42
4.880808e+41
5.910052e+40
2.601290e+41
1.020623e+42
5.183753e+41
2.911488e+40
1.265728e+41
3.065207e+41
1.794074e+42
1.018481e+42
5.316580e+40
3.843588e+40
6.600330e+41
7.501847e+41
7.114991e+40
2.875675e+42
3.767172e+42
4.433083e+41
5.270932e+41
3.714105e+41
5.955483e+41
2.170753e+42
2.010092e+41
8.592532e+41
5.564069e+41
5.428836e+41
2.272382e+42
3.731696e+41
5.078493e+41
8.981382e+41
9.001511e+40
1.040223e+40
6.332635e+41
1.838994e+42
5.918876e+41
2.888887e+41
1.416832e+42
3.165161e+41
3.111464e+41
1.152698e+42
7.046450e+41
2.325640e+41
1.088322e+41
3.364664e+39
3.790040e+41
1.779315e+42
2.134888e+42
8.466423e+41
1.394122e+41
1.473342e+41
3.539583e+41
4.229197e+40
5.076067e+41
1.053247e+42
4.679102e+39
1.513983e+42
2.036010e+42
1.967088e+41
1.806277e+41
9.309467e+40
4.770657e+40
7.460328e+39
5.193729e+41
1.184814e+42
3.710292e+40
1.531414e+42
2.234647e+42
9.613464e+37
2.777414e+42
1.966403e+42
4.177309e+41
4.473433e+42
1.637636e+42
8.449412e+41
4.770331e+42
2.290369e+42
3.402608e+39
8.912764e+41
3.563097e+41
7.299249e+40
3.976862e+41
6.001432e+40
1.093446e+40
1.804949e+41
2.446193e+42
4.190115e+42
1.204897e+42
2.319664e+41
1.304113e+42
2.358161e+41
4.550189e+40
6.446623e+40
1.609863e+42
1.407991e+42
5.877385e+40
1.821494e+42
6.657262e+41
3.414499e+41
1.583857e+42
9.021167e+41
3.505160e+41
3.449698e+41
1.619134e+41
6.781272e+40
7.890775e+41
8.151592e+41
1.386533e+41
2.098967e+40
2.680459e+40
7.812952e+40
3.729065e+41
1.516787e+41
3.947114e+38
7.491595e+40
1.047653e+42
1.460809e+42
1.517777e+41
2.242797e+41
1.629510e+41
1.027677e+40
3.900164e+40
1.880260e+42
4.171130e+42
1.379729e+42
2.105814e+41
1.140978e+42
1.610818e+38
2.134989e+42
2.445388e+42
1.427135e+41
1.352897e+41
1.556639e+41
2.647325e+42
2.659878e+42
1.416649e+41
2.309842e+41
2.995435e+40
2.289452e+42
3.974043e+42
1.971747e+42
9.909336e+41
2.497698e+42
5.270852e+42
3.329980e+42
1.532978e+41
1.517091e+41
1.095970e+41
2.503173e+42
4.161551e+42
2.870047e+42
1.931905e+42
1.830812e+42
1.091906e+42
6.352042e+40
2.150331e+41
2.538663e+41
4.343789e+38
2.085295e+41
1.538750e+41
2.823580e+40
2.004231e+41
1.466523e+42
2.381295e+42
6.907596e+41
3.480129e+40
6.631497e+40
4.343978e+41
1.779828e+42
1.074783e+42
2.846551e+41
7.879640e+41
3.361569e+42
4.030703e+42
5.291329e+41
9.640063e+41
2.160535e+42
2.127161e+41
2.353522e+41
2.988285e+40
3.893985e+42
8.474951e+42
3.423121e+42
2.431897e+40
1.343688e+42
1.871885e+41
1.060875e+42
3.237251e+42
2.032338e+42
4.176215e+41
1.655598e+41
6.250888e+41
9.961351e+41
1.522098e+41
4.105722e+41
1.029949e+42
2.324138e+40
1.670711e+42
4.072381e+42
2.328660e+42
6.575689e+41
1.259896e+42
4.515875e+42
4.751271e+42
5.849028e+41
2.379331e+41
2.459189e+37
2.361749e+42
5.146348e+42
3.426727e+42
2.077999e+42
2.390948e+42
2.040021e+42
4.560519e+41
3.466244e+38
1.779789e+39
3.982074e+41
1.176576e+42
1.152947e+42
5.382709e+41
2.111561e+41
2.837783e+41
4.582773e+41
1.096203e+41
1.036753e+41
6.014727e+40
8.476484e+41
3.629208e+42
1.825444e+42
1.766689e+40
4.119279e+41
1.168761e+41
1.282324e+42
4.474738e+40
2.298321e+42
3.433548e+42
1.473781e+41
6.766572e+41
3.459799e+39
2.400779e+42
2.541703e+42
2.243020e+40
1.957828e+42
3.770528e+41
1.038606e+42
2.265212e+42
3.353943e+41
3.565503e+41
1.384757e+42
1.105714e+42
1.787011e+41
1.346935e+40
1.469217e+40
5.931774e+41
3.367125e+41
2.800767e+41
8.339971e+41
6.328927e+40
1.858328e+42
6.663682e+41
1.707630e+41
2.533646e+41
1.046073e+40
1.598112e+41
3.532545e+42
5.399207e+42
1.143854e+42
5.087716e+40
3.312808e+40
3.034951e+41
5.119039e+41
6.856137e+40
4.096293e+39
3.460410e+41
1.753911e+42
1.717174e+42
9.004826e+40
2.787768e+41
7.258418e+40
4.929895e+42
9.079771e+42
2.232945e+42
3.478505e+41
9.621333e+41
2.191061e+39
2.801160e+41
1.311906e+40
3.914291e+41
4.490768e+40
1.789658e+41
2.591756e+41
4.710274e+40
1.621735e+40
3.790508e+41
1.101728e+42
5.613128e+41
5.961983e+40
5.056105e+41
5.923724e+39
9.716737e+41
2.921613e+41
3.989352e+41
1.974529e+41
2.112310e+42
7.867642e+42
3.423072e+42
2.300860e+40
6.492401e+41
2.337668e+39
2.387621e+41
1.801425e+41
2.013369e+42
1.091525e+42
1.110900e+41
1.269038e+42
2.301706e+41
6.758394e+41
1.714249e+42
3.334273e+41
3.261626e+40
3.553808e+40
1.026442e+42
4.925437e+41
4.914393e+41
1.920189e+42
3.089051e+41
1.155971e+41
4.408895e+35
5.082108e+41
1.853858e+41
1.067955e+41
2.953245e+39
1.442022e+42
3.273279e+42
7.826961e+41
3.408373e+41
1.135369e+42
6.634210e+40
4.228038e+41
8.974717e+40
1.445993e+42
4.745550e+42
1.880724e+42
7.509691e+40
5.279311e+41
1.456296e+41
1.743568e+42
6.376085e+41
9.139518e+40
1.369861e+41
4.848475e+41
2.360452e+42
1.317272e+42
1.040417e+39
4.891952e+41
1.311697e+38
2.664675e+42
7.149650e+42
4.659452e+42
7.473380e+41
2.315640e+41
1.947190e+42
4.432340e+42
1.835384e+42
3.369127e+39
4.185812e+39
2.034404e+42
5.154601e+42
2.422816e+42
2.637232e+41
3.115686e+41
1.104576e+42
2.268175e+41
8.498418e+41
1.824666e+42
3.407796e+40
1.237304e+42
1.309874e+42
1.502208e+41
2.514025e+40
4.499923e+41
9.104230e+41
1.395267e+41
2.009594e+41
1.437201e+41
5.005667e+41
2.148947e+42
3.353389e+41
1.731347e+42
4.147635e+42
3.607940e+41
1.813860e+42
2.755881e+42
1.865819e+41
3.141476e+41
3.210523e+41
2.818145e+41
1.299405e+42
2.953244e+42
2.295070e+42
7.769635e+41
2.457600e+41
1.081700e+41
2.386097e+40
9.325530e+40
9.716009e+41
2.054596e+42
8.211406e+41
1.713278e+40
1.820658e+41
2.079545e+42
1.745754e+42
1.817388e+41
3.188004e+42
9.424569e+41
9.505016e+41
2.970096e+42
9.083622e+41
2.170862e+41
1.696833e+42
5.436498e+42
4.181765e+42
4.271805e+41
5.579901e+40
1.503184e+41
3.103275e+42
5.162900e+42
2.170587e+42
4.755520e+41
1.275449e+42
3.989991e+42
2.672582e+42
3.861179e+40
1.891975e+41
1.878017e+41
1.619731e+42
7.654946e+41
3.768264e+40
2.723121e+41
1.575881e+42
9.086039e+41
6.947645e+40
6.865824e+41
4.544211e+39
2.204917e+42
3.815031e+42
1.210169e+42
1.519902e+38
1.911645e+39
1.254324e+42
2.462678e+42
5.429132e+40
2.873249e+42
4.056635e+42
2.644979e+41
4.908440e+41
1.274513e+40
1.629904e+42
2.370574e+42
1.473811e+41
4.861290e+41
1.547373e+41
9.126711e+41
3.193751e+42
9.718577e+41
7.049855e+41
3.519553e+42
1.335051e+42
4.669818e+40
1.975232e+41
3.307229e+41
1.358403e+42
8.718364e+40
8.222461e+41
5.787829e+41
3.013991e+41
1.603156e+42
3.456037e+41
1.108576e+41
9.873256e+40
2.052841e+39
2.954141e+41
3.425501e+42
5.373896e+42
1.921147e+42
1.563636e+41
5.559326e+41
4.193590e+42
7.593738e+42
4.511525e+42
7.827416e+41
2.043698e+40
2.377074e+40
1.281287e+41
1.241013e+41
2.011710e+41
1.147126e+42
3.551586e+42
4.114162e+42
1.516862e+42
3.083040e+40
1.530921e+41
1.608058e+41
3.306837e+40
6.541887e+38
3.861791e+39
1.075825e+40
1.968289e+40
6.929543e+40
4.222753e+41
3.476165e+40
8.917186e+41
2.004040e+42
2.895104e+41
3.743205e+41
3.497435e+41
1.763013e+41
8.456618e+41
4.343569e+40
3.919686e+41
2.177484e+40
2.197156e+42
6.476920e+42
3.291835e+42
1.027983e+40
5.499803e+41
3.345822e+40
1.590875e+41
5.490067e+40
1.791195e+42
1.496445e+42
6.283706e+40
1.686991e+42
3.391823e+41
9.196555e+41
1.953255e+42
1.995661e+41
7.884965e+40
6.812148e+40
9.800344e+41
1.496585e+41
1.241609e+42
2.924222e+42
7.584467e+41
2.163139e+39
2.128485e+37
1.388145e+41
2.019135e+40
5.694544e+40
4.714320e+40
1.641364e+42
2.761093e+42
5.601757e+41
3.228494e+41
9.155161e+41
3.086176e+40
3.939066e+41
4.065947e+40
1.537319e+42
4.372176e+42
1.689671e+42
3.761529e+40
3.787176e+41
1.137244e+41
1.450014e+42
6.739300e+41
3.665884e+40
1.529588e+41
3.227294e+41
2.342718e+42
1.620349e+42
8.272381e+34
6.372427e+41
1.733413e+38
2.996298e+42
7.299223e+42
4.218454e+42
6.537551e+41
3.017197e+41
2.039536e+42
4.112692e+42
1.728896e+42
1.760935e+40
1.395113e+40
1.895213e+42
4.992236e+42
2.587770e+42
2.977764e+41
2.490650e+41
1.002924e+42
2.559718e+41
8.350523e+41
2.160800e+42
1.937621e+41
3.945209e+41
3.006107e+40
1.496226e+42
3.411191e+42
1.260671e+42
2.634410e+39
5.165874e+41
6.072474e+41
4.303481e+41
3.616276e+41
1.840179e+41
2.039792e+40
7.999326e+41
1.221892e+42
1.679462e+41
3.865507e+41
1.228197e+42
6.472671e+41
7.760296e+39
4.114365e+41
1.307600e+42
1.635477e+42
1.421486e+42
1.478005e+42
1.620688e+42
7.656179e+41
5.272067e+39
5.328234e+40
2.369600e+41
1.950950e+42
1.827036e+42
2.688398e+41
2.098023e+40
6.000240e+41
2.120813e+42
9.734019e+41
2.324523e+41
2.186392e+42
7.748149e+41
5.105773e+41
2.673753e+42
1.432423e+42
3.153445e+41
1.145349e+42
4.895095e+42
5.010866e+42
5.861961e+41
1.656271e+41
8.504378e+40
3.758906e+42
5.721833e+42
1.770326e+42
3.253120e+41
1.460901e+42
3.901141e+42
1.658251e+42
6.060751e+40
5.665088e+41
1.877553e+40
9.698825e+41
7.803068e+41
3.196605e+41
6.814706e+41
1.309206e+42
4.240248e+41
1.248469e+41
4.703998e+41
3.544358e+40
2.153386e+42
3.512778e+42
1.110220e+42
2.416114e+39
2.143420e+40
1.367583e+42
2.212947e+42
2.131300e+40
2.680163e+42
3.664846e+42
3.213542e+41
3.270053e+41
1.807341e+40
1.305376e+42
2.341348e+42
2.477488e+41
4.744472e+41
2.568116e+41
9.042505e+41
3.774893e+42
1.221867e+42
6.278177e+41
2.860438e+42
6.235750e+41
2.530432e+41
2.252100e+41
4.734688e+41
1.634189e+42
1.594418e+41
7.374635e+41
7.590621e+41
1.391113e+41
1.610467e+42
5.922619e+41
6.742230e+40
2.104987e+41
4.087113e+39
1.881480e+41
2.924940e+42
5.615353e+42
2.313426e+42
1.544588e+41
4.185608e+41
4.175699e+42
8.079775e+42
4.575415e+42
6.435072e+41
9.388250e+39
3.686436e+40
1.452802e+41
9.666759e+40
1.756960e+41
1.224622e+42
3.717899e+42
4.112690e+42
1.522778e+42
6.395492e+40
4.928351e+40
1.707606e+40
5.570512e+40
3.417331e+41
3.587655e+41
2.706824e+40
6.593001e+40
8.761515e+39
1.301789e+41
3.026104e+40
6.191903e+41
2.085473e+42
9.841251e+41
6.436566e+39
1.529817e+40
1.783075e+41
4.425178e+41
9.785264e+38
4.282345e+41
2.051472e+40
2.271504e+42
7.015274e+42
3.595182e+42
7.292196e+37
8.062467e+41
1.925675e+40
3.656377e+41
4.009574e+40
2.406373e+42
1.800577e+42
1.720363e+41
2.108795e+42
2.144095e+41
1.254414e+42
1.677686e+42
6.265714e+40
5.748856e+40
1.913514e+41
9.440967e+41
5.005560e+40
1.220199e+42
2.372365e+42
7.183086e+41
1.040041e+40
1.777959e+39
6.202093e+40
1.300161e+40
1.217976e+40
6.787423e+40
1.352452e+42
2.567315e+42
7.007336e+41
2.751012e+41
1.090703e+42
4.673235e+40
5.208167e+41
7.049575e+40
1.685756e+42
4.529175e+42
1.515092e+42
5.565434e+40
3.001358e+41
1.529074e+41
1.346665e+42
6.172571e+41
2.082071e+40
1.299516e+41
2.632880e+41
2.201270e+42
1.696844e+42
4.234908e+38
7.403800e+41
1.145649e+40
2.663674e+42
6.303256e+42
3.033673e+42
2.704827e+41
1.946432e+41
2.246701e+42
4.698846e+42
1.971652e+42
2.137379e+39
5.990254e+40
5.244249e+41
1.627352e+42
3.961586e+40
1.865759e+42
2.055821e+42
2.091207e+38
9.455614e+41
2.529780e+41
1.401230e+41
2.150631e+41
3.267605e+39
1.819497e+38
1.628381e+41
6.556143e+41
1.072484e+42
7.570215e+41
2.866052e+38
1.277099e+42
2.228436e+42
5.080852e+41
6.232080e+40
2.702090e+41
2.022616e+41
3.957421e+41
4.070594e+41
2.778249e+40
1.454546e+42
1.478640e+42
4.638360e+39
1.040108e+42
1.430684e+42
9.193113e+41
1.217555e+42
2.171587e+42
1.797905e+42
3.352047e+41
2.211046e+40
5.455025e+40
7.092779e+40
6.372606e+41
7.377687e+41
2.404004e+41
1.167272e+41
8.166093e+41
2.447703e+42
1.156273e+42
3.781985e+41
3.079643e+42
7.905285e+41
1.048926e+42
3.177529e+42
9.216892e+41
1.299980e+41
1.526319e+42
5.911562e+42
4.557903e+42
2.918230e+41
1.427079e+41
2.281584e+41
3.781400e+42
5.036378e+42
1.725314e+42
4.900613e+41
1.561235e+42
3.546941e+42
1.563954e+42
3.062074e+40
5.243589e+41
4.238300e+39
8.803672e+41
8.653445e+41
3.744616e+41
6.463544e+41
1.253761e+42
4.625816e+41
1.047981e+41
5.034942e+41
2.256187e+40
2.152385e+42
3.572556e+42
1.094115e+42
1.179910e+39
2.481476e+40
1.421794e+42
2.222656e+42
1.894728e+40
2.658664e+42
3.609016e+42
3.260867e+41
3.023323e+41
1.428861e+40
1.303865e+42
2.328518e+42
2.441742e+41
4.884445e+41
2.711302e+41
8.932939e+41
3.792135e+42
1.237303e+42
6.150986e+41
2.819203e+42
6.071381e+41
2.525237e+41
2.176363e+41
4.790282e+41
1.622136e+42
1.431242e+41
8.778359e+41
1.213349e+42
2.535448e+40
6.709905e+40
6.625450e+41
5.030542e+42
5.197744e+42
9.369636e+41
1.548697e+38
1.498353e+41
1.536954e+42
2.053034e+42
1.148351e+42
8.875875e+41
1.645726e+42
3.078417e+42
4.047269e+42
3.130505e+42
7.622499e+41
4.227093e+40
2.700674e+41
4.354677e+40
1.290614e+42
2.145692e+42
2.070976e+42
2.466917e+42
2.340874e+42
5.368084e+41
1.241578e+41
3.165210e+41
7.126257e+40
9.081360e+41
3.722387e+41
2.929983e+40
9.819250e+40
4.004310e+40
2.030977e+41
4.064354e+39
7.558638e+41
1.502214e+42
8.139951e+41
7.782827e+40
4.656445e+38
6.639810e+40
3.322138e+41
3.560879e+40
3.133563e+41
8.036978e+40
1.979511e+42
7.600897e+42
3.890217e+42
9.836852e+39
9.346691e+41
7.174667e+38
4.728451e+41
8.261821e+40
2.627893e+42
1.597258e+42
2.194113e+41
1.855371e+42
1.556601e+41
1.098523e+42
1.519025e+42
9.619738e+40
3.665052e+40
1.373297e+41
8.363009e+41
7.528956e+40
1.121636e+42
2.521097e+42
7.759382e+41
1.617463e+39
6.518706e+37
8.751502e+40
2.705075e+40
1.934258e+40
5.352133e+40
1.450190e+42
2.683174e+42
6.397282e+41
3.150247e+41
1.003698e+42
1.581818e+40
7.169471e+41
2.812483e+41
6.684700e+41
2.355383e+42
5.349157e+41
2.247550e+41
1.971934e+41
6.062260e+41
2.516281e+42
9.884099e+41
1.027459e+40
2.280092e+40
1.050330e+42
3.768241e+42
1.554655e+42
2.489184e+41
1.731354e+42
3.897181e+40
2.264207e+42
2.691858e+42
5.417816e+39
2.799995e+42
1.630483e+42
6.542212e+41
6.587201e+42
6.154821e+42
9.545412e+41
6.812745e+40
4.215202e+40
2.382391e+41
2.449517e+41
1.680318e+41
1.252029e+42
5.185705e+41
1.118335e+41
7.351741e+41
1.213163e+41
2.721799e+41
5.593655e+41
3.767501e+40
2.949757e+40
2.240395e+41
2.120696e+42
1.595883e+42
8.276311e+40
2.413565e+42
1.666089e+42
7.853167e+40
2.164041e+40
1.406762e+40
2.462269e+41
1.016702e+42
4.021773e+41
3.030265e+41
1.772255e+42
1.125559e+42
8.068366e+40
8.795893e+40
3.137220e+41
4.966348e+41
8.869890e+41
1.837420e+42
2.545012e+42
1.128304e+42
9.490907e+39
5.153198e+41
1.400378e+39
1.171026e+42
1.494592e+42
1.641783e+41
2.767253e+39
7.880519e+41
3.117919e+42
1.309148e+42
5.226896e+41
3.362699e+42
7.541631e+41
1.129262e+42
3.225317e+42
9.063486e+41
1.126006e+41
1.526313e+42
6.174786e+42
4.691252e+42
2.316581e+41
1.916097e+41
2.667694e+41
3.990641e+42
4.827868e+42
1.564378e+42
5.601088e+41
1.762197e+42
3.431476e+42
1.399524e+42
1.895576e+40
4.202376e+41
1.129107e+39
7.300325e+41
8.805348e+41
