0.000000e+00
3.543600e+12
5.120502e+15
1.750893e+18
2.519465e+20
1.932294e+22
8.995131e+23
2.759744e+25
5.902095e+26
9.147298e+27
1.053852e+29
9.144893e+29
5.977968e+30
2.897662e+31
1.001359e+32
2.274104e+32
2.946069e+32
3.743558e+32
2.515321e+33
1.212023e+34
3.120344e+34
4.762091e+34
4.988828e+34
5.483190e+34
7.505701e+34
8.504493e+34
8.575998e+34
9.757829e+34
9.912201e+34
1.152464e+35
1.534482e+35
1.551674e+35
1.990203e+35
2.779591e+35
2.827855e+35
3.169658e+35
3.371317e+35
3.825676e+35
6.187060e+35
7.022216e+35
7.954996e+35
1.484620e+36
2.347851e+36
2.810962e+36
2.957766e+36
2.985942e+36
2.987400e+36
3.046873e+36
3.137809e+36
3.154876e+36
3.170855e+36
3.248327e+36
3.343997e+36
3.434596e+36
3.481532e+36
3.482801e+36
3.582558e+36
3.658465e+36
3.682020e+36
3.901082e+36
3.914517e+36
4.404746e+36
5.650313e+36
6.106475e+36
6.108805e+36
6.157304e+36
6.188045e+36
6.445467e+36
6.730249e+36
7.110655e+36
7.970391e+36
9.267348e+36
1.045650e+37
1.157977e+37
1.274905e+37
1.324868e+37
1.325601e+37
1.347678e+37
1.347759e+37
1.376953e+37
1.377016e+37
1.475495e+37
1.587409e+37
1.587866e+37
1.607098e+37
1.619466e+37
1.752119e+37
1.775950e+37
1.871530e+37
2.047775e+37
2.049999e+37
2.144239e+37
2.206307e+37
2.206500e+37
2.212536e+37
2.220179e+37
2.261771e+37
2.276810e+37
2.279124e+37
2.298653e+37
2.305027e+37
2.308884e+37
2.318172e+37
2.323979e+37
2.380023e+37
2.388610e+37
2.422686e+37
2.426772e+37
2.685146e+37
3.392599e+37
3.585012e+37
3.639733e+37
3.826160e+37
3.860881e+37
3.863240e+37
3.874524e+37
3.876346e+37
3.876427e+37
4.046988e+37
5.250728e+37
6.660083e+37
6.895956e+37
6.910111e+37
6.912740e+37
7.241588e+37
7.749043e+37
8.021473e+37
8.182539e+37
8.236386e+37
8.312920e+37
8.949004e+37
9.560050e+37
9.705427e+37
9.737823e+37
9.811838e+37
9.883385e+37
1.000080e+38
1.066646e+38
1.220294e+38
1.295264e+38
1.294342e+38
1.296911e+38
1.288369e+38
1.284994e+38
1.379261e+38
1.548586e+38
1.567103e+38
1.583373e+38
1.582825e+38
1.634109e+38
1.679886e+38
1.684124e+38
1.703096e+38
1.793133e+38
1.818961e+38
1.864298e+38
2.008983e+38
2.070514e+38
2.093230e+38
2.138893e+38
2.189759e+38
2.200315e+38
2.219275e+38
2.389316e+38
2.618481e+38
2.648406e+38
2.677065e+38
2.720994e+38
2.724804e+38
2.726078e+38
2.760290e+38
2.836375e+38
2.900592e+38
2.940213e+38
2.975306e+38
3.032047e+38
3.116578e+38
3.200404e+38
3.260846e+38
3.309181e+38
3.379706e+38
3.414779e+38
3.409974e+38
3.629991e+38
4.067287e+38
4.428564e+38
4.634588e+38
4.743765e+38
4.747331e+38
4.743388e+38
4.755823e+38
4.765383e+38
4.839821e+38
4.846396e+38
4.921446e+38
5.133687e+38
5.326170e+38
5.458697e+38
5.520128e+38
5.521958e+38
5.522835e+38
5.536330e+38
5.676343e+38
5.824227e+38
5.826999e+38
5.868591e+38
5.965996e+38
6.116487e+38
6.375426e+38
6.604894e+38
6.644167e+38
6.656539e+38
6.656321e+38
6.713618e+38
7.004807e+38
7.181626e+38
7.197127e+38
7.198732e+38
7.200301e+38
7.084204e+38
6.999284e+38
7.123572e+38
7.127245e+38
7.333207e+38
7.745526e+38
7.854807e+38
7.828062e+38
7.864003e+38
7.880501e+38
7.879877e+38
7.915355e+38
7.977062e+38
7.962197e+38
8.295173e+38
9.145649e+38
9.577504e+38
9.572080e+38
9.528465e+38
9.399937e+38
9.588884e+38
9.730009e+38
9.723013e+38
9.755947e+38
9.756209e+38
9.662682e+38
9.714565e+38
1.074136e+39
1.160634e+39
1.168646e+39
1.169336e+39
1.168163e+39
1.172630e+39
1.196274e+39
1.208805e+39
1.209458e+39
1.208645e+39
1.217767e+39
1.240721e+39
1.251840e+39
1.250775e+39
1.249359e+39
1.253438e+39
1.251701e+39
1.234351e+39
1.214183e+39
1.259718e+39
1.339836e+39
1.347694e+39
1.364991e+39
1.388449e+39
1.385101e+39
1.385723e+39
1.386058e+39
1.450921e+39
1.481651e+39
1.475795e+39
1.467945e+39
1.482879e+39
1.501836e+39
1.498007e+39
1.490972e+39
1.497573e+39
1.516809e+39
1.494927e+39
1.471488e+39
1.467667e+39
1.462968e+39
1.458673e+39
1.460885e+39
1.465381e+39
1.487159e+39
1.529732e+39
1.540247e+39
1.540585e+39
1.542413e+39
1.521122e+39
1.506392e+39
1.496296e+39
1.539871e+39
1.566224e+39
1.571099e+39
1.594677e+39
1.581228e+39
1.615201e+39
1.645458e+39
1.641214e+39
1.632482e+39
1.623920e+39
1.615622e+39
1.588696e+39
1.585332e+39
1.589345e+39
1.595139e+39
1.606958e+39
1.595848e+39
1.579957e+39
1.578753e+39
1.581197e+39
1.603711e+39
1.624435e+39
1.622569e+39
1.610216e+39
1.617906e+39
1.598554e+39
1.565504e+39
1.574119e+39
1.577670e+39
1.572659e+39
1.572916e+39
1.593911e+39
1.609335e+39
1.614012e+39
1.632447e+39
1.616146e+39
1.533768e+39
1.491688e+39
1.505107e+39
1.534071e+39
1.567678e+39
1.547504e+39
1.543816e+39
1.559391e+39
1.566823e+39
1.681644e+39
1.758115e+39
1.736660e+39
1.681071e+39
1.610332e+39
1.603557e+39
1.597859e+39
1.623933e+39
1.685433e+39
1.679549e+39
1.657957e+39
1.658141e+39
1.706370e+39
1.746578e+39
1.719404e+39
1.735691e+39
1.754524e+39
1.752495e+39
1.755288e+39
1.767002e+39
1.867834e+39
1.918889e+39
1.871812e+39
1.807677e+39
1.796425e+39
1.816041e+39
1.803728e+39
1.807516e+39
1.802832e+39
1.800776e+39
1.747137e+39
1.711738e+39
1.733816e+39
1.782739e+39
1.821022e+39
1.852112e+39
1.864181e+39
1.872568e+39
1.903420e+39
1.894815e+39
1.901700e+39
1.904873e+39
1.875947e+39
1.862942e+39
1.866855e+39
1.869093e+39
1.865743e+39
1.843967e+39
1.799497e+39
1.783020e+39
1.783016e+39
1.777922e+39
1.798186e+39
1.796919e+39
1.818618e+39
1.861550e+39
1.885131e+39
1.880823e+39
1.859373e+39
1.858851e+39
1.816416e+39
1.787531e+39
1.787758e+39
1.786901e+39
1.780473e+39
1.762854e+39
1.768835e+39
1.773929e+39
1.769438e+39
1.792396e+39
1.792989e+39
1.779104e+39
1.802777e+39
1.802413e+39
1.852136e+39
1.909051e+39
1.925182e+39
1.935689e+39
1.938625e+39
1.933005e+39
1.976303e+39
2.015915e+39
1.994346e+39
2.002708e+39
2.010400e+39
2.012866e+39
2.026669e+39
2.033434e+39
2.029659e+39
2.023415e+39
2.040379e+39
2.089773e+39
2.100076e+39
2.114974e+39
2.270820e+39
2.463181e+39
2.531601e+39
2.522450e+39
2.565646e+39
2.594945e+39
2.487571e+39
2.577899e+39
2.819509e+39
2.854520e+39
2.837898e+39
2.847298e+39
2.879257e+39
2.945445e+39
3.023353e+39
3.055305e+39
3.058889e+39
3.115560e+39
3.121374e+39
3.066739e+39
3.091756e+39
3.269129e+39
3.513094e+39
3.548775e+39
3.619398e+39
3.908930e+39
4.119812e+39
4.269425e+39
4.320065e+39
4.323546e+39
4.529391e+39
4.638113e+39
4.626519e+39
4.749697e+39
4.960264e+39
5.093324e+39
5.094047e+39
5.144709e+39
5.375036e+39
5.575268e+39
5.589170e+39
5.534934e+39
5.535940e+39
5.583951e+39
5.595687e+39
5.584665e+39
5.663307e+39
5.851897e+39
5.985369e+39
5.983427e+39
6.110138e+39
6.481952e+39
6.689988e+39
6.692917e+39
6.712719e+39
6.713393e+39
6.712663e+39
6.747635e+39
6.791360e+39
6.795222e+39
7.004734e+39
7.132549e+39
7.098072e+39
7.115276e+39
7.160908e+39
7.266968e+39
7.414258e+39
7.445570e+39
7.485773e+39
7.616216e+39
7.651093e+39
7.650163e+39
7.667190e+39
7.761073e+39
8.013005e+39
8.139010e+39
8.131707e+39
8.453740e+39
8.749086e+39
8.801315e+39
8.749008e+39
8.668291e+39
8.634287e+39
8.648068e+39
8.657527e+39
8.694978e+39
8.957024e+39
9.261169e+39
9.323476e+39
9.367960e+39
9.702649e+39
1.008646e+40
1.020036e+40
1.017109e+40
1.019316e+40
1.024753e+40
1.024322e+40
1.019188e+40
1.028631e+40
1.054117e+40
1.055949e+40
1.033729e+40
1.035348e+40
1.051005e+40
1.050334e+40
1.046581e+40
1.045921e+40
1.031352e+40
1.018300e+40
1.023538e+40
1.023852e+40
1.038311e+40
1.071441e+40
1.078760e+40
1.064468e+40
1.064370e+40
1.072640e+40
1.072925e+40
1.070113e+40
1.069564e+40
1.067553e+40
1.050946e+40
1.027909e+40
1.024203e+40
1.028010e+40
1.031438e+40
1.030124e+40
1.016209e+40
1.011747e+40
1.017291e+40
1.007355e+40
1.004463e+40
1.013538e+40
1.001451e+40
9.856136e+39
9.833902e+39
9.817533e+39
9.985611e+39
1.022206e+40
1.022872e+40
1.015924e+40
1.026838e+40
1.059382e+40
1.085926e+40
1.088012e+40
1.088991e+40
1.088590e+40
1.074303e+40
1.065678e+40
1.069457e+40
1.055744e+40
1.038159e+40
1.064344e+40
1.077224e+40
1.084631e+40
1.136582e+40
1.171022e+40
1.169869e+40
1.165608e+40
1.171930e+40
1.158239e+40
1.144949e+40
1.144484e+40
1.148868e+40
1.172687e+40
1.186513e+40
1.172281e+40
1.179685e+40
1.196207e+40
1.188509e+40
1.185043e+40
1.184989e+40
1.182878e+40
1.172870e+40
1.148164e+40
1.132544e+40
1.144322e+40
1.143190e+40
1.123278e+40
1.118541e+40
1.128105e+40
1.137115e+40
1.143117e+40
1.146283e+40
1.147454e+40
1.143537e+40
1.116527e+40
1.085298e+40
1.079465e+40
1.076595e+40
1.067320e+40
1.073881e+40
1.074811e+40
1.079803e+40
1.124513e+40
1.159197e+40
1.163952e+40
1.163807e+40
1.154872e+40
1.132424e+40
1.119969e+40
1.119816e+40
1.120354e+40
1.131651e+40
1.143552e+40
1.146376e+40
1.146337e+40
1.149467e+40
1.158287e+40
1.166302e+40
1.167754e+40
1.161180e+40
1.142071e+40
1.126247e+40
1.137264e+40
1.166264e+40
1.193984e+40
1.208109e+40
1.206408e+40
1.217734e+40
1.253742e+40
1.270722e+40
1.268748e+40
1.268755e+40
1.258796e+40
1.226062e+40
1.199141e+40
1.198847e+40
1.201159e+40
1.245375e+40
1.291498e+40
1.283642e+40
1.291387e+40
1.328575e+40
1.347073e+40
1.346156e+40
1.350207e+40
1.328509e+40
1.280985e+40
1.257535e+40
1.256987e+40
1.247873e+40
1.221223e+40
1.198679e+40
1.194938e+40
1.194495e+40
1.195741e+40
1.197853e+40
1.193727e+40
1.190291e+40
1.191474e+40
1.172342e+40
1.126109e+40
1.112824e+40
1.112099e+40
1.090834e+40
1.086945e+40
1.091951e+40
1.090186e+40
1.093304e+40
1.107196e+40
1.126779e+40
1.138041e+40
1.132067e+40
1.119047e+40
1.108906e+40
1.108094e+40
1.132221e+40
1.178249e+40
1.208293e+40
1.210374e+40
1.214672e+40
1.225181e+40
1.233490e+40
1.235898e+40
1.235858e+40
1.225998e+40
1.199387e+40
1.188087e+40
1.188988e+40
1.191963e+40
1.221031e+40
1.270597e+40
1.283976e+40
1.288825e+40
1.355504e+40
1.400421e+40
1.399311e+40
1.399103e+40
1.397337e+40
1.377501e+40
1.332277e+40
1.317699e+40
1.312868e+40
1.276816e+40
1.244909e+40
1.237344e+40
1.248867e+40
1.264820e+40
1.279369e+40
1.298347e+40
1.316487e+40
1.307044e+40
1.297926e+40
1.312592e+40
1.315061e+40
1.323075e+40
1.351210e+40
1.352190e+40
1.331178e+40
1.334831e+40
1.333876e+40
1.318791e+40
1.318226e+40
1.309218e+40
1.278434e+40
1.242101e+40
1.228022e+40
1.228152e+40
1.235913e+40
1.278465e+40
1.304068e+40
1.302707e+40
1.348118e+40
1.410431e+40
1.449378e+40
1.467032e+40
1.465725e+40
1.465154e+40
1.431657e+40
1.384501e+40
1.380648e+40
1.365475e+40
1.327629e+40
1.304062e+40
1.293677e+40
1.290117e+40
1.294184e+40
1.311166e+40
1.314028e+40
1.319315e+40
1.341944e+40
1.357246e+40
1.365332e+40
1.378285e+40
1.382690e+40
1.377136e+40
1.396860e+40
1.420532e+40
1.422811e+40
1.423651e+40
1.432818e+40
1.447911e+40
1.459109e+40
1.450621e+40
1.427685e+40
1.405341e+40
1.397740e+40
1.405858e+40
1.399316e+40
1.375747e+40
1.347999e+40
1.336523e+40
1.349440e+40
1.384676e+40
1.419465e+40
1.426212e+40
1.394602e+40
1.343380e+40
1.336515e+40
1.382241e+40
1.410965e+40
1.400075e+40
1.417059e+40
1.438390e+40
1.438394e+40
1.453843e+40
1.467761e+40
1.470250e+40
1.469130e+40
1.461887e+40
1.437538e+40
1.394847e+40
1.377222e+40
1.372135e+40
1.311266e+40
1.263981e+40
1.260851e+40
1.261005e+40
1.265700e+40
1.296678e+40
1.367100e+40
1.391645e+40
1.398728e+40
1.447344e+40
1.466976e+40
1.466913e+40
1.460261e+40
1.443018e+40
1.430818e+40
1.406737e+40
1.388323e+40
1.392627e+40
1.394884e+40
1.378467e+40
1.373171e+40
1.373843e+40
1.366585e+40
1.387032e+40
1.431666e+40
1.452324e+40
1.448713e+40
1.446924e+40
1.451136e+40
1.459310e+40
1.472658e+40
1.491602e+40
1.499977e+40
1.504677e+40
1.485395e+40
1.429680e+40
1.447900e+40
1.488308e+40
1.442900e+40
1.407705e+40
1.408369e+40
1.408932e+40
1.420876e+40
1.442594e+40
1.438675e+40
1.429014e+40
1.432409e+40
1.430762e+40
1.437274e+40
1.438404e+40
1.451170e+40
1.504856e+40
1.544226e+40
1.536759e+40
1.532427e+40
1.527913e+40
1.522441e+40
1.576801e+40
1.652207e+40
1.655853e+40
1.660768e+40
1.711755e+40
1.725654e+40
1.715050e+40
1.716138e+40
1.714264e+40
1.711656e+40
1.734489e+40
1.767218e+40
1.778316e+40
1.770289e+40
1.762056e+40
1.770227e+40
1.794496e+40
1.830184e+40
1.843488e+40
1.846534e+40
1.908242e+40
1.995520e+40
1.987730e+40
1.940330e+40
1.934624e+40
1.932963e+40
1.924536e+40
1.924845e+40
1.906426e+40
1.874379e+40
1.889932e+40
1.889917e+40
1.870428e+40
1.872363e+40
1.867717e+40
1.869453e+40
1.878476e+40
1.878646e+40
1.877506e+40
1.867173e+40
1.855030e+40
1.865315e+40
1.876417e+40
1.881805e+40
1.894529e+40
1.900453e+40
1.905362e+40
1.945496e+40
1.936283e+40
1.866669e+40
1.860407e+40
1.858260e+40
1.797493e+40
1.772235e+40
1.781594e+40
1.778528e+40
1.826471e+40
1.853455e+40
1.850813e+40
1.869274e+40
1.872877e+40
1.857974e+40
1.876095e+40
1.933369e+40
1.933031e+40
1.921230e+40
1.908074e+40
1.865588e+40
1.844562e+40
1.860074e+40
1.888678e+40
1.895488e+40
1.891818e+40
1.934680e+40
1.947213e+40
1.937413e+40
1.988079e+40
2.029081e+40
2.015257e+40
1.953244e+40
1.912599e+40
1.927742e+40
1.960577e+40
1.977439e+40
1.972461e+40
1.956623e+40
1.934063e+40
1.944252e+40
2.021053e+40
2.080873e+40
2.084706e+40
2.087082e+40
2.087502e+40
2.089692e+40
2.075000e+40
2.041712e+40
2.033907e+40
2.059362e+40
2.102196e+40
2.123727e+40
2.057389e+40
1.968412e+40
1.980408e+40
1.999135e+40
1.958393e+40
1.934206e+40
1.946683e+40
1.946178e+40
1.969669e+40
2.038234e+40
2.038817e+40
1.996911e+40
1.986304e+40
1.987553e+40
1.996570e+40
2.024118e+40
2.029966e+40
1.998726e+40
1.985490e+40
1.981963e+40
1.924415e+40
1.844968e+40
1.819451e+40
1.817762e+40
1.856927e+40
1.947304e+40
1.978438e+40
1.950092e+40
1.943284e+40
1.963856e+40
1.969736e+40
1.984652e+40
2.015316e+40
2.014759e+40
2.017810e+40
2.024578e+40
2.020267e+40
2.019918e+40
2.018977e+40
2.034030e+40
2.063692e+40
2.060636e+40
2.050648e+40
2.058393e+40
2.048869e+40
2.050262e+40
2.090127e+40
2.107180e+40
2.109001e+40
2.108136e+40
2.122107e+40
2.157137e+40
2.160315e+40
2.164942e+40
2.166631e+40
2.165926e+40
2.117912e+40
2.090211e+40
2.101885e+40
2.083211e+40
2.095387e+40
2.122956e+40
2.098648e+40
2.041220e+40
2.036750e+40
2.028822e+40
2.007200e+40
2.006169e+40
2.002541e+40
1.993331e+40
1.979606e+40
1.987914e+40
2.008814e+40
1.963793e+40
1.933361e+40
1.957101e+40
1.918329e+40
1.879648e+40
1.911314e+40
1.947905e+40
1.951430e+40
1.948880e+40
1.931486e+40
1.897459e+40
1.882754e+40
1.925128e+40
1.971970e+40
1.962494e+40
1.888608e+40
1.825663e+40
1.830031e+40
1.884112e+40
1.975122e+40
1.995098e+40
1.955792e+40
1.956124e+40
1.988170e+40
2.023859e+40
2.025392e+40
1.990024e+40
1.980157e+40
1.976080e+40
1.952487e+40
1.934875e+40
1.924897e+40
1.906751e+40
1.888354e+40
1.956590e+40
2.041513e+40
1.983460e+40
1.963650e+40
2.005425e+40
2.012828e+40
2.013246e+40
2.018907e+40
1.995508e+40
1.963447e+40
2.015615e+40
2.058753e+40
2.067863e+40
2.070393e+40
2.060714e+40
2.043227e+40
2.085463e+40
2.112416e+40
2.040042e+40
2.002436e+40
2.002284e+40
1.985470e+40
1.978634e+40
1.983097e+40
1.968854e+40
1.933922e+40
1.988416e+40
2.149274e+40
2.251621e+40
2.258835e+40
2.264493e+40
2.282616e+40
2.288535e+40
2.282327e+40
2.283382e+40
2.280537e+40
2.276148e+40
2.282193e+40
2.275970e+40
2.230685e+40
2.167797e+40
2.148936e+40
2.196494e+40
2.195187e+40
2.155446e+40
2.179473e+40
2.176008e+40
2.181583e+40
2.224682e+40
2.245644e+40
2.240688e+40
2.230939e+40
2.261699e+40
2.296059e+40
2.273971e+40
2.274999e+40
2.293392e+40
2.289479e+40
2.286781e+40
2.286668e+40
2.321817e+40
2.323634e+40
2.346307e+40
2.386959e+40
2.371528e+40
2.356492e+40
2.369519e+40
2.397736e+40
2.411443e+40
2.438471e+40
2.451795e+40
2.410531e+40
2.371704e+40
2.368601e+40
2.361130e+40
2.322785e+40
2.301654e+40
2.300231e+40
2.264002e+40
2.234779e+40
2.233071e+40
2.230919e+40
2.233784e+40
2.237545e+40
2.196413e+40
2.124661e+40
2.090612e+40
2.116336e+40
2.185261e+40
2.194417e+40
2.133598e+40
2.095356e+40
2.102882e+40
2.128818e+40
2.193349e+40
2.252888e+40
2.254580e+40
2.256225e+40
2.273909e+40
2.267091e+40
2.205488e+40
2.119899e+40
2.108355e+40
2.093473e+40
2.092080e+40
2.137612e+40
2.151693e+40
2.137936e+40
2.143439e+40
2.161551e+40
2.119294e+40
2.085218e+40
2.077692e+40
2.071542e+40
2.077259e+40
2.114802e+40
2.101723e+40
2.036182e+40
2.027940e+40
2.054852e+40
2.067791e+40
2.065954e+40
2.059246e+40
2.052431e+40
2.037877e+40
2.037802e+40
1.982088e+40
1.814813e+40
1.704712e+40
1.689553e+40
1.753625e+40
1.877072e+40
1.914093e+40
1.889587e+40
1.909720e+40
1.953445e+40
1.979322e+40
2.011043e+40
2.041956e+40
2.045326e+40
2.060982e+40
2.118383e+40
2.133094e+40
2.114107e+40
2.114637e+40
2.099146e+40
2.105342e+40
2.093693e+40
2.049954e+40
2.030258e+40
2.031490e+40
2.029651e+40
2.029078e+40
2.038181e+40
2.048123e+40
2.048213e+40
2.124188e+40
2.236020e+40
2.273974e+40
2.270451e+40
2.233908e+40
2.233746e+40
2.216116e+40
2.190740e+40
2.193719e+40
2.193848e+40
2.212183e+40
2.192023e+40
2.158871e+40
2.132751e+40
2.118772e+40
2.119131e+40
2.138837e+40
2.187556e+40
2.193293e+40
2.196405e+40
2.217627e+40
2.218771e+40
2.222070e+40
2.222221e+40
2.218195e+40
2.217632e+40
2.224251e+40
2.247954e+40
2.245782e+40
2.226175e+40
2.260214e+40
2.260775e+40
2.184034e+40
2.140201e+40
2.143340e+40
2.138351e+40
2.130772e+40
2.128638e+40
2.075962e+40
2.008023e+40
2.012670e+40
2.052286e+40
2.098749e+40
2.135570e+40
2.126131e+40
2.121068e+40
2.135362e+40
2.130919e+40
2.102199e+40
2.082819e+40
2.095795e+40
2.097860e+40
2.096076e+40
2.120759e+40
2.111955e+40
2.123496e+40
2.180819e+40
2.200237e+40
2.187270e+40
2.168251e+40
2.176883e+40
2.176040e+40
2.219086e+40
2.287745e+40
2.292985e+40
2.292227e+40
2.294072e+40
2.281153e+40
2.283544e+40
2.309947e+40
2.324109e+40
2.315136e+40
2.297251e+40
2.308745e+40
2.252925e+40
2.109824e+40
2.050157e+40
2.057850e+40
2.044383e+40
2.026619e+40
2.001812e+40
1.959573e+40
1.943680e+40
1.983940e+40
2.030167e+40
2.016011e+40
1.963644e+40
1.963616e+40
2.036345e+40
2.098470e+40
2.120780e+40
2.129742e+40
2.133104e+40
2.137042e+40
2.195979e+40
2.286096e+40
2.283592e+40
2.219870e+40
2.199252e+40
2.199987e+40
2.144860e+40
2.069578e+40
2.041748e+40
2.038756e+40
2.071298e+40
2.176632e+40
2.249605e+40
2.225816e+40
2.233354e+40
2.246281e+40
2.212433e+40
2.218807e+40
2.241359e+40
2.235487e+40
2.240963e+40
2.296610e+40
2.311640e+40
2.262459e+40
2.272325e+40
2.286572e+40
2.266767e+40
2.266990e+40
2.260893e+40
2.241554e+40
2.236152e+40
2.242517e+40
2.237167e+40
2.212082e+40
2.219905e+40
2.231082e+40
2.202673e+40
2.229754e+40
2.252363e+40
2.252656e+40
2.258995e+40
2.259618e+40
2.256281e+40
2.243394e+40
2.237047e+40
2.247660e+40
2.280298e+40
2.251222e+40
2.188708e+40
2.158272e+40
2.159581e+40
2.150037e+40
2.175837e+40
2.224267e+40
2.212823e+40
2.194529e+40
2.185485e+40
2.183932e+40
2.171762e+40
2.139201e+40
2.152715e+40
2.136766e+40
2.090101e+40
2.125857e+40
2.151511e+40
2.133078e+40
2.116062e+40
2.142266e+40
2.117125e+40
2.054494e+40
2.047576e+40
2.048280e+40
2.071420e+40
2.088755e+40
2.080565e+40
2.058861e+40
2.053096e+40
2.051938e+40
2.061198e+40
2.063714e+40
2.049901e+40
2.050353e+40
2.049567e+40
2.065572e+40
2.097627e+40
2.126732e+40
2.142992e+40
2.143949e+40
2.224645e+40
2.326863e+40
2.287810e+40
2.239719e+40
2.229665e+40
2.243153e+40
2.170896e+40
2.167610e+40
2.215866e+40
2.206471e+40
2.311583e+40
2.341907e+40
2.283422e+40
2.198014e+40
2.171552e+40
2.176053e+40
2.256191e+40
2.309959e+40
2.270984e+40
2.260441e+40
2.247014e+40
2.264062e+40
2.238031e+40
2.129618e+40
2.050426e+40
2.076644e+40
2.062139e+40
2.097289e+40
2.150306e+40
2.136033e+40
2.174581e+40
2.198280e+40
2.190962e+40
2.135968e+40
2.103879e+40
2.104321e+40
2.116306e+40
2.192330e+40
2.241809e+40
2.242810e+40
2.243312e+40
2.268188e+40
2.351872e+40
2.489573e+40
2.546392e+40
2.536127e+40
2.525821e+40
2.513187e+40
2.552150e+40
2.536005e+40
2.510902e+40
2.545799e+40
2.569289e+40
2.574995e+40
2.574433e+40
2.562896e+40
2.561857e+40
2.587281e+40
2.587593e+40
2.582015e+40
2.583330e+40
2.591157e+40
2.607152e+40
2.635545e+40
2.646762e+40
2.611620e+40
2.631023e+40
2.701262e+40
2.718367e+40
2.718115e+40
2.716148e+40
2.723723e+40
2.723093e+40
2.718828e+40
2.706546e+40
2.664360e+40
2.671592e+40
2.671542e+40
2.727946e+40
2.834892e+40
2.833277e+40
2.804643e+40
2.803301e+40
2.799996e+40
2.773654e+40
2.814085e+40
2.870444e+40
2.866252e+40
2.944406e+40
3.002216e+40
2.991307e+40
2.982265e+40
2.984654e+40
2.987234e+40
3.006892e+40
3.085530e+40
3.084382e+40
3.028630e+40
2.997015e+40
3.024306e+40
3.009651e+40
2.901698e+40
2.879361e+40
2.883841e+40
2.922741e+40
2.991387e+40
3.088278e+40
3.029133e+40
2.983463e+40
3.085003e+40
3.026396e+40
2.995111e+40
2.993175e+40
3.002859e+40
3.010003e+40
3.014147e+40
2.991124e+40
2.951049e+40
2.956843e+40
2.977955e+40
3.000066e+40
2.983294e+40
2.977348e+40
2.978864e+40
2.986838e+40
3.020149e+40
3.077237e+40
3.019806e+40
2.962673e+40
2.964034e+40
2.897764e+40
2.867864e+40
2.869292e+40
2.871790e+40
2.877301e+40
2.877765e+40
2.900352e+40
2.844179e+40
2.806104e+40
2.957232e+40
3.038848e+40
3.014908e+40
2.927415e+40
2.791987e+40
2.731129e+40
2.801451e+40
2.932960e+40
2.963373e+40
2.920959e+40
2.888055e+40
2.890671e+40
2.921001e+40
3.096433e+40
3.180627e+40
3.184824e+40
3.225065e+40
3.222956e+40
3.267824e+40
3.253001e+40
3.248559e+40
3.284712e+40
3.287952e+40
3.275634e+40
3.244130e+40
3.187003e+40
3.183985e+40
3.207838e+40
3.160174e+40
3.129188e+40
3.129629e+40
3.137479e+40
3.134039e+40
3.157001e+40
3.210178e+40
3.220096e+40
3.223853e+40
3.259765e+40
3.297936e+40
3.223881e+40
3.091882e+40
3.084149e+40
3.101198e+40
3.092118e+40
3.091614e+40
3.096514e+40
3.070558e+40
3.009446e+40
3.082529e+40
3.137606e+40
3.108869e+40
3.114340e+40
3.119567e+40
3.117330e+40
3.119626e+40
3.167545e+40
3.127372e+40
3.081588e+40
3.172115e+40
3.229183e+40
3.200932e+40
3.123586e+40
3.087738e+40
3.091113e+40
3.101713e+40
3.160204e+40
3.111820e+40
3.013288e+40
3.002081e+40
2.994542e+40
2.973224e+40
2.962899e+40
2.958629e+40
2.967611e+40
2.992234e+40
3.075448e+40
3.164341e+40
3.120239e+40
3.126421e+40
3.209052e+40
3.189352e+40
3.167448e+40
3.170507e+40
3.170700e+40
3.171793e+40
3.158503e+40
3.116286e+40
3.063431e+40
3.074575e+40
3.111402e+40
3.129875e+40
3.127703e+40
3.120935e+40
3.119502e+40
3.116593e+40
3.107784e+40
3.125711e+40
3.140412e+40
3.131133e+40
3.121927e+40
3.030468e+40
2.973360e+40
2.972343e+40
2.973133e+40
2.964931e+40
2.964774e+40
2.917447e+40
2.791984e+40
2.766510e+40
2.853101e+40
2.937259e+40
2.951518e+40
2.885875e+40
2.676442e+40
2.586794e+40
2.623251e+40
2.678261e+40
2.738955e+40
2.674934e+40
2.653637e+40
2.690331e+40
2.710924e+40
2.730155e+40
2.753592e+40
2.776116e+40
2.775905e+40
2.964483e+40
3.457920e+40
3.672951e+40
3.673327e+40
3.887435e+40
4.074208e+40
4.156476e+40
4.211609e+40
4.198757e+40
4.239864e+40
4.683329e+40
5.135242e+40
5.239995e+40
5.236897e+40
5.290209e+40
5.483289e+40
5.888484e+40
6.208184e+40
6.224654e+40
6.345313e+40
6.646057e+40
6.902137e+40
6.935087e+40
6.814921e+40
6.790788e+40
6.906379e+40
7.202541e+40
7.454565e+40
7.469939e+40
7.489069e+40
7.721932e+40
7.989960e+40
8.065085e+40
8.123423e+40
8.175657e+40
8.171176e+40
8.242811e+40
8.363517e+40
8.444531e+40
8.443467e+40
8.457145e+40
8.462757e+40
8.763568e+40
9.291661e+40
9.396707e+40
9.366523e+40
9.542481e+40
9.728390e+40
9.851398e+40
9.916657e+40
9.883875e+40
9.884323e+40
1.009993e+41
1.036627e+41
1.050438e+41
1.052279e+41
1.053111e+41
1.067275e+41
1.104117e+41
1.136267e+41
1.136691e+41
1.148000e+41
1.181922e+41
1.201206e+41
1.204275e+41
1.204137e+41
1.206002e+41
1.218211e+41
1.248593e+41
1.274552e+41
1.274091e+41
1.280962e+41
1.312986e+41
1.334621e+41
1.334218e+41
1.331684e+41
1.334293e+41
1.356354e+41
1.394564e+41
1.409974e+41
1.407724e+41
1.415023e+41
1.431622e+41
1.450528e+41
1.482647e+41
1.508248e+41
1.510729e+41
1.513205e+41
1.518772e+41
1.521945e+41
1.532210e+41
1.562222e+41
1.577204e+41
1.578227e+41
1.620341e+41
1.670806e+41
1.681902e+41
1.679089e+41
1.681090e+41
1.688494e+41
1.683127e+41
1.648714e+41
1.627654e+41
1.632391e+41
1.632183e+41
1.623154e+41
1.614474e+41
1.605274e+41
1.601240e+41
1.613569e+41
1.622400e+41
1.596991e+41
1.583415e+41
1.605474e+41
1.618623e+41
1.607798e+41
1.576266e+41
1.548101e+41
1.552572e+41
1.584978e+41
1.600319e+41
1.589217e+41
1.578573e+41
1.582584e+41
1.606127e+41
1.635210e+41
1.632712e+41
1.609264e+41
1.617872e+41
1.643569e+41
1.644125e+41
1.628973e+41
1.614665e+41
1.603117e+41
1.604702e+41
1.634535e+41
1.668056e+41
1.673390e+41
1.664539e+41
1.654946e+41
1.649062e+41
1.652801e+41
1.645500e+41
1.615136e+41
1.597464e+41
1.613004e+41
1.639437e+41
1.651303e+41
1.643413e+41
1.627750e+41
1.627316e+41
1.651678e+41
1.671658e+41
1.666961e+41
1.652336e+41
1.662021e+41
1.693846e+41
1.706065e+41
1.681764e+41
1.652982e+41
1.650941e+41
1.661252e+41
1.667491e+41
1.662471e+41
1.657802e+41
1.660136e+41
1.668572e+41
1.689346e+41
1.704121e+41
1.686881e+41
1.696194e+41
1.719053e+41
1.699162e+41
1.678266e+41
1.672589e+41
1.672877e+41
1.688754e+41
1.715581e+41
1.703434e+41
1.688042e+41
1.707249e+41
1.724497e+41
1.723430e+41
1.702605e+41
1.662617e+41
1.638568e+41
1.662667e+41
1.708190e+41
1.735268e+41
1.736136e+41
1.717249e+41
1.681186e+41
1.664956e+41
1.676391e+41
1.665573e+41
1.628084e+41
1.613208e+41
1.627650e+41
1.649056e+41
1.668985e+41
1.676614e+41
1.663324e+41
1.660985e+41
1.678738e+41
1.691853e+41
1.702124e+41
1.703454e+41
1.705724e+41
1.725016e+41
1.730958e+41
1.686444e+41
1.660127e+41
1.661657e+41
1.651606e+41
1.649877e+41
1.648269e+41
1.637918e+41
1.635687e+41
1.645004e+41
1.637584e+41
1.615141e+41
1.600540e+41
1.630017e+41
1.665263e+41
1.657268e+41
1.620858e+41
1.594188e+41
1.595667e+41
1.623231e+41
1.641891e+41
1.625317e+41
1.613735e+41
1.615825e+41
1.624313e+41
1.640459e+41
1.637376e+41
1.598804e+41
1.593827e+41
1.624559e+41
1.644968e+41
1.657142e+41
1.667411e+41
1.655657e+41
1.631084e+41
1.633350e+41
1.626851e+41
1.594398e+41
1.574699e+41
1.572019e+41
1.572838e+41
1.590684e+41
1.600206e+41
1.562716e+41
1.535587e+41
1.549337e+41
1.549426e+41
1.526976e+41
1.516757e+41
1.510971e+41
1.513002e+41
1.566530e+41
1.602067e+41
1.573942e+41
1.555226e+41
1.559214e+41
1.572267e+41
1.596152e+41
1.592453e+41
1.549830e+41
1.549399e+41
1.564896e+41
1.553457e+41
1.553261e+41
1.556304e+41
1.556518e+41
1.566654e+41
1.569868e+41
1.536212e+41
1.511576e+41
1.516254e+41
1.514959e+41
1.503477e+41
1.492847e+41
1.486553e+41
1.486466e+41
1.499869e+41
1.516141e+41
1.494260e+41
1.461336e+41
1.472044e+41
1.500219e+41
1.520805e+41
1.537969e+41
1.538678e+41
1.506825e+41
1.488403e+41
1.493890e+41
1.487549e+41
1.475214e+41
1.469361e+41
1.457594e+41
1.453560e+41
1.493137e+41
1.523068e+41
1.498642e+41
1.481541e+41
1.495194e+41
1.506086e+41
1.503722e+41
1.508992e+41
1.514099e+41
1.515012e+41
1.551491e+41
1.582870e+41
1.577946e+41
1.569563e+41
1.569725e+41
1.578588e+41
1.591614e+41
1.572914e+41
1.546439e+41
1.553861e+41
1.535645e+41
1.502687e+41
1.494493e+41
1.493052e+41
1.493521e+41
1.520152e+41
1.536973e+41
1.516724e+41
1.505094e+41
1.513979e+41
1.534746e+41
1.545805e+41
1.531950e+41
1.507919e+41
1.506137e+41
1.512013e+41
1.520660e+41
1.522037e+41
1.510452e+41
1.500040e+41
1.504395e+41
1.537911e+41
1.575409e+41
1.579454e+41
1.567847e+41
1.556648e+41
1.551108e+41
1.550986e+41
1.552452e+41
1.566043e+41
1.569575e+41
1.573386e+41
1.589661e+41
1.599572e+41
1.595238e+41
1.579457e+41
1.574232e+41
1.581871e+41
1.549776e+41
1.502083e+41
1.488771e+41
1.502616e+41
1.521731e+41
1.522547e+41
1.496452e+41
1.469361e+41
1.469401e+41
1.498326e+41
1.537213e+41
1.536003e+41
1.520934e+41
1.529308e+41
1.546498e+41
1.562559e+41
1.577424e+41
1.573775e+41
1.577626e+41
1.611873e+41
1.626770e+41
1.622810e+41
1.620551e+41
1.619771e+41
1.629289e+41
1.640851e+41
1.613612e+41
1.587688e+41
1.593024e+41
1.586092e+41
1.571061e+41
1.560119e+41
1.543851e+41
1.532333e+41
1.548726e+41
1.582536e+41
1.598680e+41
1.590900e+41
1.592255e+41
1.605013e+41
1.619111e+41
1.630846e+41
1.600801e+41
1.553232e+41
1.543265e+41
1.546490e+41
1.540660e+41
1.539243e+41
1.542284e+41
1.528605e+41
1.513122e+41
1.538875e+41
1.530425e+41
1.487230e+41
1.497265e+41
1.527677e+41
1.540598e+41
1.539257e+41
1.521416e+41
1.502753e+41
1.522051e+41
1.586522e+41
1.635448e+41
1.643799e+41
1.637852e+41
1.634565e+41
1.634450e+41
1.614446e+41
1.564963e+41
1.534608e+41
1.565418e+41
1.606508e+41
1.621185e+41
1.629235e+41
1.633333e+41
1.630576e+41
1.652436e+41
1.687237e+41
1.682170e+41
1.667034e+41
1.666314e+41
1.662476e+41
1.648871e+41
1.619634e+41
1.579548e+41
1.577039e+41
1.641208e+41
1.720679e+41
1.760162e+41
1.770460e+41
1.747209e+41
1.699171e+41
1.704054e+41
1.719467e+41
1.690776e+41
1.673127e+41
1.675563e+41
1.679318e+41
1.686848e+41
1.710438e+41
1.736056e+41
1.733095e+41
1.751342e+41
1.815627e+41
1.866129e+41
1.877625e+41
1.872820e+41
1.870737e+41
1.870355e+41
1.837107e+41
1.773083e+41
1.751959e+41
1.775439e+41
1.803983e+41
1.826099e+41
1.831897e+41
1.814676e+41
1.803683e+41
1.813471e+41
1.806959e+41
1.781613e+41
1.772176e+41
1.775765e+41
1.778267e+41
1.770652e+41
1.749314e+41
1.734755e+41
1.747493e+41
1.799496e+41
1.852356e+41
1.875602e+41
1.879337e+41
1.878859e+41
1.879963e+41
1.871373e+41
1.839639e+41
1.822027e+41
1.845269e+41
1.863924e+41
1.859813e+41
1.855319e+41
1.847690e+41
1.836944e+41
1.858844e+41
1.937219e+41
2.019196e+41
2.050256e+41
2.044154e+41
2.024696e+41
2.010675e+41
2.010788e+41
1.985955e+41
1.961703e+41
1.961660e+41
1.968142e+41
2.011396e+41
2.070541e+41
2.102399e+41
2.105071e+41
2.104533e+41
2.090593e+41
2.033117e+41
1.980485e+41
1.963677e+41
1.968086e+41
1.983221e+41
1.997288e+41
1.994987e+41
1.989278e+41
2.006336e+41
2.032374e+41
2.038728e+41
2.018882e+41
1.993406e+41
1.980213e+41
1.981519e+41
1.967873e+41
1.922539e+41
1.888334e+41
1.920406e+41
1.980438e+41
2.014971e+41
2.032848e+41
2.042668e+41
2.042353e+41
2.054189e+41
2.055878e+41
2.010623e+41
1.974057e+41
1.963069e+41
1.961030e+41
1.961597e+41
1.954888e+41
1.933483e+41
1.946977e+41
2.014436e+41
2.085989e+41
2.136768e+41
2.168865e+41
2.163913e+41
2.128318e+41
2.121427e+41
2.107275e+41
2.035353e+41
1.963620e+41
1.935911e+41
1.940368e+41
1.974276e+41
2.027848e+41
2.055910e+41
2.055270e+41
2.073198e+41
2.103265e+41
2.116761e+41
2.112408e+41
2.090893e+41
2.071585e+41
2.079078e+41
2.070502e+41
2.038107e+41
2.039573e+41
2.058530e+41
2.087960e+41
2.142273e+41
2.192168e+41
2.200763e+41
2.200378e+41
2.204955e+41
2.168197e+41
2.108696e+41
2.071832e+41
2.063756e+41
2.067877e+41
2.066952e+41
2.059232e+41
2.057498e+41
2.061935e+41
2.093958e+41
2.135971e+41
2.143876e+41
2.132514e+41
2.126739e+41
2.128634e+41
2.115631e+41
2.047168e+41
1.958952e+41
1.943072e+41
1.981521e+41
2.026570e+41
2.073204e+41
2.108340e+41
2.110874e+41
2.112009e+41
2.147118e+41
2.166447e+41
2.141932e+41
2.112017e+41
2.088549e+41
2.075271e+41
2.091272e+41
2.106634e+41
2.094503e+41
2.093318e+41
2.118068e+41
2.148940e+41
2.191743e+41
2.249714e+41
2.276200e+41
2.276409e+41
2.282295e+41
2.239129e+41
2.182629e+41
2.163599e+41
2.161750e+41
2.167552e+41
2.196202e+41
2.207969e+41
2.201159e+41
2.239166e+41
2.251705e+41
2.224946e+41
2.211604e+41
2.201227e+41
2.186414e+41
2.192254e+41
2.178340e+41
2.114771e+41
2.081960e+41
2.104214e+41
2.158496e+41
2.206313e+41
2.228282e+41
2.228223e+41
2.226921e+41
2.226434e+41
2.215207e+41
2.179679e+41
2.129328e+41
2.088201e+41
2.056251e+41
2.045496e+41
2.061067e+41
2.074799e+41
2.068598e+41
2.082296e+41
2.104702e+41
2.118811e+41
2.134541e+41
2.162566e+41
2.170260e+41
2.169939e+41
2.172366e+41
2.134101e+41
2.079441e+41
2.048707e+41
2.047062e+41
2.066091e+41
2.097680e+41
2.131739e+41
2.136549e+41
2.147838e+41
2.205352e+41
2.236540e+41
2.204519e+41
2.158190e+41
2.143081e+41
2.147235e+41
2.147308e+41
2.132304e+41
2.132050e+41
2.164502e+41
2.205981e+41
2.256422e+41
2.306934e+41
2.320052e+41
2.321395e+41
2.337347e+41
2.296944e+41
2.222551e+41
2.184467e+41
2.175912e+41
2.177150e+41
2.179241e+41
2.166812e+41
2.157363e+41
2.166387e+41
2.169766e+41
2.173334e+41
2.167675e+41
2.130069e+41
2.095243e+41
2.101204e+41
2.110401e+41
2.084454e+41
2.037292e+41
1.989073e+41
1.950179e+41
1.940822e+41
1.968938e+41
2.013635e+41
2.033419e+41
2.031143e+41
2.069921e+41
2.135902e+41
2.165011e+41
2.134901e+41
2.066631e+41
2.033129e+41
2.045411e+41
2.039478e+41
2.031349e+41
2.031676e+41
2.048431e+41
2.096667e+41
2.160277e+41
2.189955e+41
2.191470e+41
2.190126e+41
2.167126e+41
2.137562e+41
2.109165e+41
2.087708e+41
2.079521e+41
2.082879e+41
2.089716e+41
2.095242e+41
2.092966e+41
2.125001e+41
2.166876e+41
2.152488e+41
2.119903e+41
2.105690e+41
2.099780e+41
2.101134e+41
2.095048e+41
2.036947e+41
1.999683e+41
2.029900e+41
2.075712e+41
2.116631e+41
2.145707e+41
2.142772e+41
2.124778e+41
2.143682e+41
2.177537e+41
2.199711e+41
2.197592e+41
2.158040e+41
2.086257e+41
2.053010e+41
2.054325e+41
2.053248e+41
2.052593e+41
2.053224e+41
2.076728e+41
2.119874e+41
2.160702e+41
2.169829e+41
2.143168e+41
2.139644e+41
2.136244e+41
2.069217e+41
2.003026e+41
1.978575e+41
1.976833e+41
1.993608e+41
2.011889e+41
2.000500e+41
1.997762e+41
2.019225e+41
2.029122e+41
2.016424e+41
1.975447e+41
1.924252e+41
1.907310e+41
1.907814e+41
1.898534e+41
1.902940e+41
1.901999e+41
1.930847e+41
2.010077e+41
2.073484e+41
2.100109e+41
2.109465e+41
2.108936e+41
2.113568e+41
2.109684e+41
2.066633e+41
2.027054e+41
2.017613e+41
2.017109e+41
2.008109e+41
1.997105e+41
1.988090e+41
2.015974e+41
2.073711e+41
2.120966e+41
2.157748e+41
2.174067e+41
2.135733e+41
2.096396e+41
2.097125e+41
2.052310e+41
1.962076e+41
1.899912e+41
1.874310e+41
1.878545e+41
1.954360e+41
2.037009e+41
2.039814e+41
2.037827e+41
2.082801e+41
2.123841e+41
2.127073e+41
2.097314e+41
2.051067e+41
2.030098e+41
2.053858e+41
2.060252e+41
2.041003e+41
2.038128e+41
2.049426e+41
2.083439e+41
2.157934e+41
2.222065e+41
2.226681e+41
2.227928e+41
2.209084e+41
2.154635e+41
2.119485e+41
2.104868e+41
2.096489e+41
2.101469e+41
2.115529e+41
2.114585e+41
2.112687e+41
2.130929e+41
2.158537e+41
2.162769e+41
2.140050e+41
2.114904e+41
2.103853e+41
2.104291e+41
2.093238e+41
2.047077e+41
2.008313e+41
2.030707e+41
2.074362e+41
2.104415e+41
2.139819e+41
2.180419e+41
2.176221e+41
2.161403e+41
2.168269e+41
2.155387e+41
2.125519e+41
2.101200e+41
2.078767e+41
2.065040e+41
2.092467e+41
2.123574e+41
2.117725e+41
2.131416e+41
2.172499e+41
2.201639e+41
2.222617e+41
2.261984e+41
2.300238e+41
2.298530e+41
2.286120e+41
2.253717e+41
2.219452e+41
2.208739e+41
2.210051e+41
2.222169e+41
2.247582e+41
2.242138e+41
2.231193e+41
2.287021e+41
2.312685e+41
2.259857e+41
2.210078e+41
2.187287e+41
2.176045e+41
2.186987e+41
2.196719e+41
2.181764e+41
2.176839e+41
2.200097e+41
2.255835e+41
2.320535e+41
2.363633e+41
2.371612e+41
2.371839e+41
2.361681e+41
2.322619e+41
2.274269e+41
2.229348e+41
2.184947e+41
2.162325e+41
2.164192e+41
2.168858e+41
2.169157e+41
2.197471e+41
2.247968e+41
2.295446e+41
2.333781e+41
2.304382e+41
2.230685e+41
2.209413e+41
2.204632e+41
2.159499e+41
2.101399e+41
2.054401e+41
2.016822e+41
2.014465e+41
2.089777e+41
2.158316e+41
2.157833e+41
2.160111e+41
2.203058e+41
2.252426e+41
2.269915e+41
2.230882e+41
2.166830e+41
2.148046e+41
2.170163e+41
2.178532e+41
2.168399e+41
2.165942e+41
2.176980e+41
2.210661e+41
2.279860e+41
2.342264e+41
2.352702e+41
2.353849e+41
2.342552e+41
2.289964e+41
2.241705e+41
2.223426e+41
2.223033e+41
2.238364e+41
2.259132e+41
2.258733e+41
2.256622e+41
2.283272e+41
2.301527e+41
2.288502e+41
2.260603e+41
2.225286e+41
2.186967e+41
2.169150e+41
2.180072e+41
2.178185e+41
2.170283e+41
2.197910e+41
2.218279e+41
2.231623e+41
2.278921e+41
2.310296e+41
2.292972e+41
2.288165e+41
2.280088e+41
2.254484e+41
2.249886e+41
2.263770e+41
2.240677e+41
2.197110e+41
2.221632e+41
2.246161e+41
2.239441e+41
2.248443e+41
2.266912e+41
2.285268e+41
2.310611e+41
2.342394e+41
2.365312e+41
2.356694e+41
2.310232e+41
2.259643e+41
2.233384e+41
2.218828e+41
2.211624e+41
2.227197e+41
2.254932e+41
2.240532e+41
2.243991e+41
2.304924e+41
2.327776e+41
2.292849e+41
2.245596e+41
2.212113e+41
2.198776e+41
2.212632e+41
2.218538e+41
2.206438e+41
2.203932e+41
2.223997e+41
2.278047e+41
2.348193e+41
2.393210e+41
2.399675e+41
2.399804e+41
2.387747e+41
2.351361e+41
2.305310e+41
2.257165e+41
2.210372e+41
2.189339e+41
2.193592e+41
2.204689e+41
2.207369e+41
2.208408e+41
2.210107e+41
2.215334e+41
2.225699e+41
2.208447e+41
2.178304e+41
2.171173e+41
2.166965e+41
2.128003e+41
2.069373e+41
2.016842e+41
1.982442e+41
1.988353e+41
2.032327e+41
2.063097e+41
2.063213e+41
2.060877e+41
2.096257e+41
2.161740e+41
2.189495e+41
2.143093e+41
2.074071e+41
2.054602e+41
2.071343e+41
2.084701e+41
2.079684e+41
2.080944e+41
2.096664e+41
2.122375e+41
2.172391e+41
2.235010e+41
2.254125e+41
2.254162e+41
2.241467e+41
2.190295e+41
2.150081e+41
2.135899e+41
2.132008e+41
2.145341e+41
2.171189e+41
2.166186e+41
2.166593e+41
2.203902e+41
2.222571e+41
2.219260e+41
2.201583e+41
2.159439e+41
2.099508e+41
2.072215e+41
2.089078e+41
2.099072e+41
2.083944e+41
2.059935e+41
2.014544e+41
1.981009e+41
2.007026e+41
2.059454e+41
2.087873e+41
2.090843e+41
2.093418e+41
2.114230e+41
2.153577e+41
2.183104e+41
2.158617e+41
2.126431e+41
2.145978e+41
2.167562e+41
2.171223e+41
2.173165e+41
2.195662e+41
2.237121e+41
2.266867e+41
2.261487e+41
2.266624e+41
2.253757e+41
2.195642e+41
2.157297e+41
2.137240e+41
2.122488e+41
2.121012e+41
2.131464e+41
2.123548e+41
2.099663e+41
2.098871e+41
2.129530e+41
2.141850e+41
2.104467e+41
2.047863e+41
2.017635e+41
2.012526e+41
2.015444e+41
2.031596e+41
2.044733e+41
2.045109e+41
2.054073e+41
2.116694e+41
2.226769e+41
2.288736e+41
2.280569e+41
2.290698e+41
2.313641e+41
2.320952e+41
2.321119e+41
2.304649e+41
2.248248e+41
2.191583e+41
2.196475e+41
2.216058e+41
2.210044e+41
2.234640e+41
2.248412e+41
2.260410e+41
2.350815e+41
2.408201e+41
2.385271e+41
2.365655e+41
2.365403e+41
2.332435e+41
2.269635e+41
2.209634e+41
2.199629e+41
2.278553e+41
2.361613e+41
2.370460e+41
2.344994e+41
2.340630e+41
2.348144e+41
2.377800e+41
2.419363e+41
2.394415e+41
2.316618e+41
2.290106e+41
2.290485e+41
2.280933e+41
2.299872e+41
2.315947e+41
2.320360e+41
2.401917e+41
2.514057e+41
2.548081e+41
2.547216e+41
2.543720e+41
2.511594e+41
2.457097e+41
2.407948e+41
2.389996e+41
2.411078e+41
2.432593e+41
2.430796e+41
2.416516e+41
2.408513e+41
2.420410e+41
2.442258e+41
2.486240e+41
2.537371e+41
2.553216e+41
2.503847e+41
2.452657e+41
2.447578e+41
2.441445e+41
2.413816e+41
2.354494e+41
2.298706e+41
2.314700e+41
2.379649e+41
2.403263e+41
2.386975e+41
2.380179e+41
2.381863e+41
2.377988e+41
2.374535e+41
2.378251e+41
2.376524e+41
2.365158e+41
2.371715e+41
2.403939e+41
2.429437e+41
2.431370e+41
2.448657e+41
2.527926e+41
2.618279e+41
2.656049e+41
2.662772e+41
2.655608e+41
2.627428e+41
2.606834e+41
2.595724e+41
2.588782e+41
2.625215e+41
2.670033e+41
2.673837e+41
2.642210e+41
2.618080e+41
2.631440e+41
2.660723e+41
2.636972e+41
2.541025e+41
2.477500e+41
2.477855e+41
2.465730e+41
2.449581e+41
2.468742e+41
2.469007e+41
2.484171e+41
2.578498e+41
2.672719e+41
2.702559e+41
2.701558e+41
2.708094e+41
2.682099e+41
2.668778e+41
2.654965e+41
2.550464e+41
2.461538e+41
2.457481e+41
2.478543e+41
2.481928e+41
2.483559e+41
2.486455e+41
2.485323e+41
2.485554e+41
2.468137e+41
2.460764e+41
2.479674e+41
2.491711e+41
2.491198e+41
2.494163e+41
2.465613e+41
2.393360e+41
2.378848e+41
2.445035e+41
2.513799e+41
2.545597e+41
2.541180e+41
2.514365e+41
2.516390e+41
2.555838e+41
2.529035e+41
2.441607e+41
2.392561e+41
2.387455e+41
2.389574e+41
2.388500e+41
2.394861e+41
2.406167e+41
2.403934e+41
2.454874e+41
2.574855e+41
2.638607e+41
2.638353e+41
2.633443e+41
2.630517e+41
2.615959e+41
2.570663e+41
2.516633e+41
2.505297e+41
2.504309e+41
2.490938e+41
2.489970e+41
2.484471e+41
2.469490e+41
2.467510e+41
2.464128e+41
2.436905e+41
2.421294e+41
2.447500e+41
2.469024e+41
2.468348e+41
2.506025e+41
2.532541e+41
2.494160e+41
2.477601e+41
2.517165e+41
2.566287e+41
2.586685e+41
2.566896e+41
2.536909e+41
2.536753e+41
2.545538e+41
2.505183e+41
2.453201e+41
2.449992e+41
2.464766e+41
2.465604e+41
2.471838e+41
2.474750e+41
2.469512e+41
2.478247e+41
2.472902e+41
2.488404e+41
2.539958e+41
2.564180e+41
2.557181e+41
2.552725e+41
2.534817e+41
2.497626e+41
2.496577e+41
2.541289e+41
2.576459e+41
2.583255e+41
2.575029e+41
2.548139e+41
2.560165e+41
2.580875e+41
2.522059e+41
2.435655e+41
2.389034e+41
2.373710e+41
2.367937e+41
2.379627e+41
2.432019e+41
2.457328e+41
2.452850e+41
2.465385e+41
2.465051e+41
2.461065e+41
2.489285e+41
2.518218e+41
2.510859e+41
2.511340e+41
2.505792e+41
2.450290e+41
2.383163e+41
2.347939e+41
2.352363e+41
2.363567e+41
2.350651e+41
2.357094e+41
2.365063e+41
2.358099e+41
2.389386e+41
2.408125e+41
2.402175e+41
2.403801e+41
2.403291e+41
2.391352e+41
2.371574e+41
2.316145e+41
2.307752e+41
2.390004e+41
2.452863e+41
2.469647e+41
2.464807e+41
2.443854e+41
2.447465e+41
2.502120e+41
2.482408e+41
2.371877e+41
2.316917e+41
2.314257e+41
2.314626e+41
2.322145e+41
2.332694e+41
2.337627e+41
2.337289e+41
2.374287e+41
2.485255e+41
2.557768e+41
2.561035e+41
2.567119e+41
2.577376e+41
2.585845e+41
2.581539e+41
2.560225e+41
2.546330e+41
2.516839e+41
2.485697e+41
2.486345e+41
2.445066e+41
2.399420e+41
2.398922e+41
2.375735e+41
2.327166e+41
2.317291e+41
2.357432e+41
2.382595e+41
2.379436e+41
2.441525e+41
2.491720e+41
2.450433e+41
2.418806e+41
2.430530e+41
2.461921e+41
2.506223e+41
2.525171e+41
2.513212e+41
2.522538e+41
2.544368e+41
2.535100e+41
2.503029e+41
2.483553e+41
2.488079e+41
2.489857e+41
2.489116e+41
2.489216e+41
2.487644e+41
2.494469e+41
2.497063e+41
2.517062e+41
2.564893e+41
2.595320e+41
2.590188e+41
2.585644e+41
2.569422e+41
2.532552e+41
2.536470e+41
2.580866e+41
2.611472e+41
2.618704e+41
2.606329e+41
2.559736e+41
2.555743e+41
2.596889e+41
2.605157e+41
2.590974e+41
2.574273e+41
2.547008e+41
2.512137e+41
2.515094e+41
2.562678e+41
2.574337e+41
2.559675e+41
2.574761e+41
2.592735e+41
2.596457e+41
2.615017e+41
2.647885e+41
2.635277e+41
2.628619e+41
2.624804e+41
2.537270e+41
2.457576e+41
2.439165e+41
2.450712e+41
2.461479e+41
2.455801e+41
2.455680e+41
2.461259e+41
2.448819e+41
2.456463e+41
2.479218e+41
2.486240e+41
2.487644e+41
2.488468e+41
2.476725e+41
2.443222e+41
2.387409e+41
2.388691e+41
2.470980e+41
2.534998e+41
2.553087e+41
2.542318e+41
2.519309e+41
2.527244e+41
2.582164e+41
2.574968e+41
2.471197e+41
2.410025e+41
2.409054e+41
2.403039e+41
2.396198e+41
2.395645e+41
2.397078e+41
2.395776e+41
2.407928e+41
2.479926e+41
2.549794e+41
2.558226e+41
2.561023e+41
2.576523e+41
2.598211e+41
2.603137e+41
2.581043e+41
2.540839e+41
2.472711e+41
2.447602e+41
2.459837e+41
2.396759e+41
2.339645e+41
2.335400e+41
2.332614e+41
2.336170e+41
2.352175e+41
2.360250e+41
2.347666e+41
2.347275e+41
2.377253e+41
2.388588e+41
2.360494e+41
2.329703e+41
2.339672e+41
2.395314e+41
2.451318e+41
2.453237e+41
2.432961e+41
2.436301e+41
2.436956e+41
2.436542e+41
2.434460e+41
2.414154e+41
2.399385e+41
2.401009e+41
2.390046e+41
2.385528e+41
2.387622e+41
2.389535e+41
2.412594e+41
2.441921e+41
2.473794e+41
2.499964e+41
2.497179e+41
2.485839e+41
2.478153e+41
2.446543e+41
2.458405e+41
2.506938e+41
2.528508e+41
2.533747e+41
2.521157e+41
2.476474e+41
2.479625e+41
2.528391e+41
2.538667e+41
2.530512e+41
2.534698e+41
2.545475e+41
2.537485e+41
2.527068e+41
2.544562e+41
2.562148e+41
2.554745e+41
2.551363e+41
2.579139e+41
2.618028e+41
2.654063e+41
2.673723e+41
2.651460e+41
2.645866e+41
2.631581e+41
2.538462e+41
2.464759e+41
2.457049e+41
2.469485e+41
2.473073e+41
2.469096e+41
2.460279e+41
2.461648e+41
2.443352e+41
2.430596e+41
2.462053e+41
2.481444e+41
2.480017e+41
2.481067e+41
2.479019e+41
2.459572e+41
2.419404e+41
2.386219e+41
2.424260e+41
2.497658e+41
2.540509e+41
2.549679e+41
2.541518e+41
2.558481e+41
2.633297e+41
2.658599e+41
2.570909e+41
2.500438e+41
2.495833e+41
2.495897e+41
2.480947e+41
2.469570e+41
2.457809e+41
2.471801e+41
2.545472e+41
2.645913e+41
2.696878e+41
2.714626e+41
2.723495e+41
2.703235e+41
2.700009e+41
2.687906e+41
2.633693e+41
2.567445e+41
2.523209e+41
2.517705e+41
2.515656e+41
2.483218e+41
2.444228e+41
2.432373e+41
2.441822e+41
2.428650e+41
2.400797e+41
2.407715e+41
2.418812e+41
2.421149e+41
2.469905e+41
2.504034e+41
2.461123e+41
2.411423e+41
2.419003e+41
2.473569e+41
2.532537e+41
2.550049e+41
2.530152e+41
2.534793e+41
2.538533e+41
2.507406e+41
2.496118e+41
2.500273e+41
2.492320e+41
2.489517e+41
2.483018e+41
2.463534e+41
2.463121e+41
2.452920e+41
2.462406e+41
2.507723e+41
2.547681e+41
2.569381e+41
2.567140e+41
2.546690e+41
2.526905e+41
2.496636e+41
2.496524e+41
2.529035e+41
2.522021e+41
2.503937e+41
2.506211e+41
2.488261e+41
2.454066e+41
2.445692e+41
2.445754e+41
2.427517e+41
2.377867e+41
2.330985e+41
2.317270e+41
2.319159e+41
2.322239e+41
2.344743e+41
2.398806e+41
2.418099e+41
2.397283e+41
2.396573e+41
2.412762e+41
2.417442e+41
2.404268e+41
2.404854e+41
2.448961e+41
2.512467e+41
2.498660e+41
2.457306e+41
2.542077e+41
2.679052e+41
2.748462e+41
2.750656e+41
2.742100e+41
2.740707e+41
2.707190e+41
2.650151e+41
2.608845e+41
2.598845e+41
2.610125e+41
2.611383e+41
2.574379e+41
2.539869e+41
2.532319e+41
2.528155e+41
2.529035e+41
2.549285e+41
2.576002e+41
2.574549e+41
2.572070e+41
2.564189e+41
2.503269e+41
2.416946e+41
2.350210e+41
2.365479e+41
2.508380e+41
2.645053e+41
2.680337e+41
2.678493e+41
2.677956e+41
2.678312e+41
2.677754e+41
2.674817e+41
2.674586e+41
2.689846e+41
2.733323e+41
2.790371e+41
2.822893e+41
2.809787e+41
2.751978e+41
2.733339e+41
2.849994e+41
2.973754e+41
2.947821e+41
2.896410e+41
2.922687e+41
2.948211e+41
2.914002e+41
2.845491e+41
2.821351e+41
2.881269e+41
2.948917e+41
2.962821e+41
2.943972e+41
2.911658e+41
2.891391e+41
2.906790e+41
2.931105e+41
2.934610e+41
2.943521e+41
2.996107e+41
3.056112e+41
3.048559e+41
2.998459e+41
2.952867e+41
2.908267e+41
2.901205e+41
2.923962e+41
2.928610e+41
2.922118e+41
2.982224e+41
3.032203e+41
2.986495e+41
2.955678e+41
2.955941e+41
2.955480e+41
2.956578e+41
2.958429e+41
2.965353e+41
3.053899e+41
3.202756e+41
3.278078e+41
3.279772e+41
3.298343e+41
3.380518e+41
3.492757e+41
3.538037e+41
3.484214e+41
3.463873e+41
3.500792e+41
3.500532e+41
3.479945e+41
3.494723e+41
3.538686e+41
3.570251e+41
3.534964e+41
3.414735e+41
3.350407e+41
3.350899e+41
3.271777e+41
3.157311e+41
3.083610e+41
3.044314e+41
3.037531e+41
3.095000e+41
3.212207e+41
3.276038e+41
3.274425e+41
3.358271e+41
3.494613e+41
3.562719e+41
3.559127e+41
3.529538e+41
3.512940e+41
3.526231e+41
3.540921e+41
3.520875e+41
3.496700e+41
3.503683e+41
3.527202e+41
3.551389e+41
3.571204e+41
3.576300e+41
3.576451e+41
3.547065e+41
3.435216e+41
3.332723e+41
3.309254e+41
3.308815e+41
3.317008e+41
3.340206e+41
3.347852e+41
3.341625e+41
3.399820e+41
3.514801e+41
3.578748e+41
3.560680e+41
3.516706e+41
3.495062e+41
3.501426e+41
3.464585e+41
3.328134e+41
3.202194e+41
3.196467e+41
3.243907e+41
3.267185e+41
3.280429e+41
3.295069e+41
3.293169e+41
3.301831e+41
3.362324e+41
3.418493e+41
3.421638e+41
3.421148e+41
3.447795e+41
3.454959e+41
3.414287e+41
3.373286e+41
3.370610e+41
3.356885e+41
3.292553e+41
3.248450e+41
3.247100e+41
3.255710e+41
3.368602e+41
3.531839e+41
3.554032e+41
3.538247e+41
3.581421e+41
3.597349e+41
3.543528e+41
3.475794e+41
3.462406e+41
3.465430e+41
3.468966e+41
3.466899e+41
3.483663e+41
3.513110e+41
3.523765e+41
3.452929e+41
3.337803e+41
3.297229e+41
3.295376e+41
3.290126e+41
3.223938e+41
3.109124e+41
3.034741e+41
3.027936e+41
3.050342e+41
3.126705e+41
3.197321e+41
3.202558e+41
3.203665e+41
3.228976e+41
3.291128e+41
3.357330e+41
3.354962e+41
3.349280e+41
3.412002e+41
3.425255e+41
3.404661e+41
3.422980e+41
3.451834e+41
3.471333e+41
3.446371e+41
3.344641e+41
3.275048e+41
3.275028e+41
3.196523e+41
3.066087e+41
2.988238e+41
2.954741e+41
2.952305e+41
3.017276e+41
3.134984e+41
3.190324e+41
3.187006e+41
3.266058e+41
3.399727e+41
3.471335e+41
3.475328e+41
3.448624e+41
3.429402e+41
3.442109e+41
3.446676e+41
3.408486e+41
3.376195e+41
3.380323e+41
3.402491e+41
3.422979e+41
3.432888e+41
3.436362e+41
3.435404e+41
3.394027e+41
3.297672e+41
3.216303e+41
3.190049e+41
3.187850e+41
3.197068e+41
3.217998e+41
3.223766e+41
3.219424e+41
3.275864e+41
3.391218e+41
3.458012e+41
3.439510e+41
3.395372e+41
3.373771e+41
3.379402e+41
3.342265e+41
3.205694e+41
3.082031e+41
3.078085e+41
3.126469e+41
3.150537e+41
3.159897e+41
3.169070e+41
3.168381e+41
3.199605e+41
3.310735e+41
3.405386e+41
3.406703e+41
3.403800e+41
3.407060e+41
3.299510e+41
3.154551e+41
3.121031e+41
3.112487e+41
3.056929e+41
3.019404e+41
3.026320e+41
3.032218e+41
3.049226e+41
3.188582e+41
3.354985e+41
3.391341e+41
3.385091e+41
3.413076e+41
3.428496e+41
3.413694e+41
3.362648e+41
3.320169e+41
3.338884e+41
3.352540e+41
3.336952e+41
3.347897e+41
3.382847e+41
3.409073e+41
3.409535e+41
3.350347e+41
3.289869e+41
3.284660e+41
3.277746e+41
3.217278e+41
3.121350e+41
3.033622e+41
3.013002e+41
3.041396e+41
3.109279e+41
3.171800e+41
3.171311e+41
3.164466e+41
3.195036e+41
3.264993e+41
3.332728e+41
3.322730e+41
3.324200e+41
3.393484e+41
3.406382e+41
3.393617e+41
3.408945e+41
3.433249e+41
3.452837e+41
3.424047e+41
3.324803e+41
3.260169e+41
3.260156e+41
3.184531e+41
3.051395e+41
2.971638e+41
2.939464e+41
2.938767e+41
3.004328e+41
3.118387e+41
3.172160e+41
3.168367e+41
3.243285e+41
3.375803e+41
3.443298e+41
3.438613e+41
3.404855e+41
3.387748e+41
3.411106e+41
3.422927e+41
3.384925e+41
3.357779e+41
3.369781e+41
3.392614e+41
3.407881e+41
3.420571e+41
3.439853e+41
3.444002e+41
3.394499e+41
3.296317e+41
3.221366e+41
3.200596e+41
3.198868e+41
3.208315e+41
3.232494e+41
3.241328e+41
3.236689e+41
3.298781e+41
3.423648e+41
3.486648e+41
3.461140e+41
3.414241e+41
3.386779e+41
3.390367e+41
3.370161e+41
3.266113e+41
3.169257e+41
3.176413e+41
3.222475e+41
3.247581e+41
3.266012e+41
3.278835e+41
3.275521e+41
3.322100e+41
3.457194e+41
3.582203e+41
3.620525e+41
3.627869e+41
3.618256e+41
3.485074e+41
3.327966e+41
3.306437e+41
3.294136e+41
3.247256e+41
3.236011e+41
3.231590e+41
3.239078e+41
3.281024e+41
3.315647e+41
3.319608e+41
3.331318e+41
3.318637e+41
3.294239e+41
3.313544e+41
3.325512e+41
3.275237e+41
3.260641e+41
3.293705e+41
3.287489e+41
3.277593e+41
3.280979e+41
3.299141e+41
3.353467e+41
3.388161e+41
3.299587e+41
3.220885e+41
3.218425e+41
3.199024e+41
3.148604e+41
3.063145e+41
2.964007e+41
2.944883e+41
2.969919e+41
2.994167e+41
3.057821e+41
3.064613e+41
3.057588e+41
3.122813e+41
3.198427e+41
3.230071e+41
3.215987e+41
3.210442e+41
3.269632e+41
3.299324e+41
3.284591e+41
3.315007e+41
3.349611e+41
3.360951e+41
3.330624e+41
3.260531e+41
3.207425e+41
3.207925e+41
3.143183e+41
3.009561e+41
2.934073e+41
2.916311e+41
2.915049e+41
2.958378e+41
3.013007e+41
3.009875e+41
3.011021e+41
3.073182e+41
3.176879e+41
3.263415e+41
3.286327e+41
3.252818e+41
3.222552e+41
3.251142e+41
3.282810e+41
3.248385e+41
3.221969e+41
3.242010e+41
3.258448e+41
3.257265e+41
3.261574e+41
3.295739e+41
3.300826e+41
3.262905e+41
3.180060e+41
3.096040e+41
3.069358e+41
3.067728e+41
3.074471e+41
3.115310e+41
3.150685e+41
3.143191e+41
3.190007e+41
3.281460e+41
3.335081e+41
3.337555e+41
3.300165e+41
3.268899e+41
3.287169e+41
3.259433e+41
3.124505e+41
3.001973e+41
2.961908e+41
2.970593e+41
2.999519e+41
3.035056e+41
3.054930e+41
3.057287e+41
3.059163e+41
3.046650e+41
3.025996e+41
3.033205e+41
3.073138e+41
3.126802e+41
3.140526e+41
3.110924e+41
3.097911e+41
3.102306e+41
3.092220e+41
3.045733e+41
3.002717e+41
2.998986e+41
3.005421e+41
3.058318e+41
3.123548e+41
3.135185e+41
3.132623e+41
3.126795e+41
3.095695e+41
3.053227e+41
3.022910e+41
3.020920e+41
3.067437e+41
3.087076e+41
3.077631e+41
3.083173e+41
3.099516e+41
3.128552e+41
3.163107e+41
3.133342e+41
3.057031e+41
3.048263e+41
3.032023e+41
2.943727e+41
2.848567e+41
2.785895e+41
2.770149e+41
2.818038e+41
2.862861e+41
2.895732e+41
2.901685e+41
2.870225e+41
2.913587e+41
3.011566e+41
3.054296e+41
3.011088e+41
2.997453e+41
3.047708e+41
3.064987e+41
3.050604e+41
3.076043e+41
3.112198e+41
3.134653e+41
3.119932e+41
3.093322e+41
3.094368e+41
3.090098e+41
3.030731e+41
2.912143e+41
2.806757e+41
2.758953e+41
2.754991e+41
2.788054e+41
2.820569e+41
2.802826e+41
2.804314e+41
2.850508e+41
2.923573e+41
3.016197e+41
3.068619e+41
3.043534e+41
2.998701e+41
3.031261e+41
3.034596e+41
2.971383e+41
2.970723e+41
3.022961e+41
3.059957e+41
3.075227e+41
3.060442e+41
3.041316e+41
3.041892e+41
3.014168e+41
2.940779e+41
2.863865e+41
2.820641e+41
2.809932e+41
2.816066e+41
2.850591e+41
2.884561e+41
2.882835e+41
2.934572e+41
3.036676e+41
3.103397e+41
3.115905e+41
3.084043e+41
3.043658e+41
3.048672e+41
3.074386e+41
3.080435e+41
3.079252e+41
3.070522e+41
3.032596e+41
2.950594e+41
2.885941e+41
2.880921e+41
2.910227e+41
2.963005e+41
2.988807e+41
2.991367e+41
3.062307e+41
3.175546e+41
3.211344e+41
3.138134e+41
3.067245e+41
3.059580e+41
3.057219e+41
3.050944e+41
3.041839e+41
3.010701e+41
3.004990e+41
3.027780e+41
3.027419e+41
3.056281e+41
3.083015e+41
3.067807e+41
3.075003e+41
3.086707e+41
3.035986e+41
2.974550e+41
2.970198e+41
2.992243e+41
3.010760e+41
3.008188e+41
3.015033e+41
3.043036e+41
3.077627e+41
3.075806e+41
3.029082e+41
2.978297e+41
2.971179e+41
2.968945e+41
2.894397e+41
2.779794e+41
2.704701e+41
2.691607e+41
2.729274e+41
2.801343e+41
2.849945e+41
2.853337e+41
2.833198e+41
2.859275e+41
2.941788e+41
2.999885e+41
2.965976e+41
2.950582e+41
3.007875e+41
3.021725e+41
3.013843e+41
3.044051e+41
3.080979e+41
3.106066e+41
3.103438e+41
3.082569e+41
3.084435e+41
3.079588e+41
3.026545e+41
2.929523e+41
2.828849e+41
2.770226e+41
2.761201e+41
2.768446e+41
2.767331e+41
2.758034e+41
2.758585e+41
2.757363e+41
2.755073e+41
2.774792e+41
2.789932e+41
2.766376e+41
2.743008e+41
2.772815e+41
2.770856e+41
2.726785e+41
2.725634e+41
2.754020e+41
2.785693e+41
2.817516e+41
2.809173e+41
2.775616e+41
2.775296e+41
2.736787e+41
2.645546e+41
2.577680e+41
2.547842e+41
2.535529e+41
2.548753e+41
2.592016e+41
2.606941e+41
2.600922e+41
2.649638e+41
2.750155e+41
2.846014e+41
2.914104e+41
2.952313e+41
2.961879e+41
2.939561e+41
2.909723e+41
2.927613e+41
2.937423e+41
2.874751e+41
2.843673e+41
2.862134e+41
2.852122e+41
2.892923e+41
2.983892e+41
3.019146e+41
3.011678e+41
3.005975e+41
3.026413e+41
3.077979e+41
3.144274e+41
3.148722e+41
3.098403e+41
3.073126e+41
3.073162e+41
3.048188e+41
3.008594e+41
2.996222e+41
2.994837e+41
3.038381e+41
3.088289e+41
3.102725e+41
3.113304e+41
3.100344e+41
3.077114e+41
3.089200e+41
3.081044e+41
3.026145e+41
3.019897e+41
3.044312e+41
3.044595e+41
3.039153e+41
3.042731e+41
3.069831e+41
3.122227e+41
3.134145e+41
3.054537e+41
2.989989e+41
2.985790e+41
2.976099e+41
2.917036e+41
2.814474e+41
2.726213e+41
2.710001e+41
2.735212e+41
2.790882e+41
2.855865e+41
2.859829e+41
2.850205e+41
2.887923e+41
2.956563e+41
3.005907e+41
2.983555e+41
2.969229e+41
3.037780e+41
3.066438e+41
3.052530e+41
3.067658e+41
3.092285e+41
3.123753e+41
3.165162e+41
3.186806e+41
3.183974e+41
3.184295e+41
3.164878e+41
3.116304e+41
3.065208e+41
3.033646e+41
3.026878e+41
3.036779e+41
3.049900e+41
3.051592e+41
3.052658e+41
3.062214e+41
3.078091e+41
3.095120e+41
3.094169e+41
3.059255e+41
3.044067e+41
3.079874e+41
3.082761e+41
3.057599e+41
3.060710e+41
3.073897e+41
3.099373e+41
3.128401e+41
3.112889e+41
3.087881e+41
3.088280e+41
3.055190e+41
2.975970e+41
2.893892e+41
2.833781e+41
2.795190e+41
2.799146e+41
2.853969e+41
2.864184e+41
2.820019e+41
2.851608e+41
2.943066e+41
2.973302e+41
2.978482e+41
3.013161e+41
2.981215e+41
2.898156e+41
2.891533e+41
2.932996e+41
2.937060e+41
2.924654e+41
2.948375e+41
2.932164e+41
2.884172e+41
2.930384e+41
3.023635e+41
3.056603e+41
3.056611e+41
3.058845e+41
3.069753e+41
3.129125e+41
3.174905e+41
3.147284e+41
3.109960e+41
3.103666e+41
3.108405e+41
3.111147e+41
3.120028e+41
3.166068e+41
3.187320e+41
3.181027e+41
3.187869e+41
3.186164e+41
3.186875e+41
3.205204e+41
3.237764e+41
3.265688e+41
3.247793e+41
3.204621e+41
3.231106e+41
3.358810e+41
3.500417e+41
3.550023e+41
3.546141e+41
3.575237e+41
3.588300e+41
3.551847e+41
3.439176e+41
3.351148e+41
3.345890e+41
3.368811e+41
3.383117e+41
3.325529e+41
3.248623e+41
3.229867e+41
3.221350e+41
3.171565e+41
3.183493e+41
3.194893e+41
3.178575e+41
3.177842e+41
3.163057e+41
3.110752e+41
3.054362e+41
3.081933e+41
3.173427e+41
3.236107e+41
3.259804e+41
3.262477e+41
3.256851e+41
3.279132e+41
3.289205e+41
3.245158e+41
3.237217e+41
3.249523e+41
3.232686e+41
3.235082e+41
3.273558e+41
3.267082e+41
3.258644e+41
3.290369e+41
3.330192e+41
3.414482e+41
3.480414e+41
3.455787e+41
3.455264e+41
3.473356e+41
3.435162e+41
3.403931e+41
3.460508e+41
3.544193e+41
3.569713e+41
3.555625e+41
3.531937e+41
3.509837e+41
3.512139e+41
3.512537e+41
3.454099e+41
3.419378e+41
3.441055e+41
3.419012e+41
3.337913e+41
3.246543e+41
3.167594e+41
3.162294e+41
3.286989e+41
3.429353e+41
3.480929e+41
3.472007e+41
3.478946e+41
3.483533e+41
3.409884e+41
3.338434e+41
3.342506e+41
3.294239e+41
3.220141e+41
3.236438e+41
3.242322e+41
3.276618e+41
3.402194e+41
3.466739e+41
3.425421e+41
3.393645e+41
3.392533e+41
3.420110e+41
3.507543e+41
3.556764e+41
3.503288e+41
3.418203e+41
3.401838e+41
3.400351e+41
3.372784e+41
3.363067e+41
3.371449e+41
3.405452e+41
3.412329e+41
3.359505e+41
3.328081e+41
3.334159e+41
3.292750e+41
3.192143e+41
3.109422e+41
3.062006e+41
3.088458e+41
3.167945e+41
3.267361e+41
3.339518e+41
3.352079e+41
3.377699e+41
3.547103e+41
3.663245e+41
3.606348e+41
3.567835e+41
3.566621e+41
3.571314e+41
3.581313e+41
3.564189e+41
3.516837e+41
3.516687e+41
3.528320e+41
3.544857e+41
3.594684e+41
3.623146e+41
3.621044e+41
3.583006e+41
3.502762e+41
3.451307e+41
3.435782e+41
3.427599e+41
3.458915e+41
3.472596e+41
3.449490e+41
3.461065e+41
3.490825e+41
3.542566e+41
3.600081e+41
3.592402e+41
3.511952e+41
3.483839e+41
3.503616e+41
3.482979e+41
3.407748e+41
3.309390e+41
3.256316e+41
3.278702e+41
3.301197e+41
3.329216e+41
3.357082e+41
3.338583e+41
3.302248e+41
3.305843e+41
3.367326e+41
3.416088e+41
3.416609e+41
3.443474e+41
3.487055e+41
3.476296e+41
3.489810e+41
3.568013e+41
3.628290e+41
3.641812e+41
3.629480e+41
3.610566e+41
3.608677e+41
3.582818e+41
3.461117e+41
3.311507e+41
3.234373e+41
3.220864e+41
3.225670e+41
3.240576e+41
3.265424e+41
3.272781e+41
3.266407e+41
3.279759e+41
3.265716e+41
3.216407e+41
3.211665e+41
3.206759e+41
3.160806e+41
3.102921e+41
3.054777e+41
3.046633e+41
3.057249e+41
3.030608e+41
2.944279e+41
2.884668e+41
2.889024e+41
2.975374e+41
3.137347e+41
3.242743e+41
3.250990e+41
3.260138e+41
3.294714e+41
3.287344e+41
3.257874e+41
3.246671e+41
3.238450e+41
3.246625e+41
3.259736e+41
3.232675e+41
3.171797e+41
3.181756e+41
3.212094e+41
3.189712e+41
3.120635e+41
3.051123e+41
3.038342e+41
3.010674e+41
2.847095e+41
2.734197e+41
2.730885e+41
2.744162e+41
2.870336e+41
3.003809e+41
3.055354e+41
3.058896e+41
3.088097e+41
3.261036e+41
3.451944e+41
3.463476e+41
3.396929e+41
3.373819e+41
3.386179e+41
3.395347e+41
3.385683e+41
3.370898e+41
3.374700e+41
3.391433e+41
3.389820e+41
3.416534e+41
3.457929e+41
3.447620e+41
3.415204e+41
3.365586e+41
3.307639e+41
3.271973e+41
3.263942e+41
3.287206e+41
3.305004e+41
3.292918e+41
3.305144e+41
3.344107e+41
3.394165e+41
3.441542e+41
3.436592e+41
3.370471e+41
3.342030e+41
3.364383e+41
3.341943e+41
3.254592e+41
3.157424e+41
3.113942e+41
3.137272e+41
3.164419e+41
3.188817e+41
3.214378e+41
3.194939e+41
3.150717e+41
3.156813e+41
3.222368e+41
3.269572e+41
3.269352e+41
3.294905e+41
3.337249e+41
3.327974e+41
3.342893e+41
3.422602e+41
3.485273e+41
3.496272e+41
3.476711e+41
3.445963e+41
3.431456e+41
3.438594e+41
3.445119e+41
3.448504e+41
3.449174e+41
3.448418e+41
3.418767e+41
3.334288e+41
3.275135e+41
3.271066e+41
3.273381e+41
3.285834e+41
3.298291e+41
3.291741e+41
3.333068e+41
3.445835e+41
3.441699e+41
3.285143e+41
3.175220e+41
3.162323e+41
3.152235e+41
3.120987e+41
3.109310e+41
3.078961e+41
3.077529e+41
3.151803e+41
3.220009e+41
3.268312e+41
3.296718e+41
3.288892e+41
3.306096e+41
3.329491e+41
3.290128e+41
3.255683e+41
3.253010e+41
3.263310e+41
3.278321e+41
3.272726e+41
3.232188e+41
3.234437e+41
3.271603e+41
3.208589e+41
3.116687e+41
3.063398e+41
3.058310e+41
3.027372e+41
2.849210e+41
2.673219e+41
2.645972e+41
2.652177e+41
2.771017e+41
2.928338e+41
2.979337e+41
2.978231e+41
3.008971e+41
3.148621e+41
3.329862e+41
3.369596e+41
3.306932e+41
3.277052e+41
3.291428e+41
3.291684e+41
3.277155e+41
3.263728e+41
3.266808e+41
3.288785e+41
3.297113e+41
3.312891e+41
3.347794e+41
3.338036e+41
3.300483e+41
3.256533e+41
3.204457e+41
3.164432e+41
3.155954e+41
3.175825e+41
3.188882e+41
3.178395e+41
3.188842e+41
3.231992e+41
3.285561e+41
3.326611e+41
3.317988e+41
3.255325e+41
3.226114e+41
3.250176e+41
3.229159e+41
3.141205e+41
3.046357e+41
3.002582e+41
3.024133e+41
3.056025e+41
3.083814e+41
3.107256e+41
3.087982e+41
3.040819e+41
3.045117e+41
3.113218e+41
3.157417e+41
3.155070e+41
3.198680e+41
3.271877e+41
3.277493e+41
3.272407e+41
3.349795e+41
3.482901e+41
3.582836e+41
3.621214e+41
3.637220e+41
3.647356e+41
3.646455e+41
3.646222e+41
3.678579e+41
3.705330e+41
3.669273e+41
3.656363e+41
3.665726e+41
3.654769e+41
3.692121e+41
3.731879e+41
3.736700e+41
3.723713e+41
3.684533e+41
3.684146e+41
3.743025e+41
3.794305e+41
3.755252e+41
3.694155e+41
3.674538e+41
3.675223e+41
3.635961e+41
3.578729e+41
3.556205e+41
3.550220e+41
3.649333e+41
3.762685e+41
3.797466e+41
3.807823e+41
3.797764e+41
3.785151e+41
3.818059e+41
3.826561e+41
3.787270e+41
3.782623e+41
3.794858e+41
3.799081e+41
3.793099e+41
3.762501e+41
3.760735e+41
3.821952e+41
3.765628e+41
3.622357e+41
3.558290e+41
3.557735e+41
3.524299e+41
3.381858e+41
3.221113e+41
3.164542e+41
3.178201e+41
3.273043e+41
3.395772e+41
3.454918e+41
3.457642e+41
3.490005e+41
3.641110e+41
3.816257e+41
3.850702e+41
3.796374e+41
3.772377e+41
3.789254e+41
3.791208e+41
3.771652e+41
3.755172e+41
3.757189e+41
3.779159e+41
3.798676e+41
3.819299e+41
3.845336e+41
3.836925e+41
3.792377e+41
3.742627e+41
3.700845e+41
3.666001e+41
3.656811e+41
3.679345e+41
3.684374e+41
3.671631e+41
3.679549e+41
3.718042e+41
3.780318e+41
3.827888e+41
3.811499e+41
3.743944e+41
3.715266e+41
3.737138e+41
3.721467e+41
3.636043e+41
3.538913e+41
3.495343e+41
3.507603e+41
3.496059e+41
3.461961e+41
3.450408e+41
3.448141e+41
3.403300e+41
3.329266e+41
3.299644e+41
3.300980e+41
3.280151e+41
3.305797e+41
3.388353e+41
3.400298e+41
3.354115e+41
3.415986e+41
3.552209e+41
3.545087e+41
3.496813e+41
3.519143e+41
3.496581e+41
3.467063e+41
3.480637e+41
3.525497e+41
3.555960e+41
3.551679e+41
3.590247e+41
3.570420e+41
3.528358e+41
3.571737e+41
3.601349e+41
3.603292e+41
3.602280e+41
3.579240e+41
3.562700e+41
3.640603e+41
3.670416e+41
3.585618e+41
3.536339e+41
3.531846e+41
3.532182e+41
3.514555e+41
3.456452e+41
3.401593e+41
3.395286e+41
3.485800e+41
3.593175e+41
3.640333e+41
3.652125e+41
3.648785e+41
3.643279e+41
3.655526e+41
3.658103e+41
3.643020e+41
3.645161e+41
3.657819e+41
3.660459e+41
3.644234e+41
3.610362e+41
3.622037e+41
3.673352e+41
3.637774e+41
3.527846e+41
3.460955e+41
3.457183e+41
3.422716e+41
3.262976e+41
3.081700e+41
3.013195e+41
3.054155e+41
3.179793e+41
3.284851e+41
3.316968e+41
3.316940e+41
3.347171e+41
3.470204e+41
3.620075e+41
3.654349e+41
3.601556e+41
3.582277e+41
3.608539e+41
3.619130e+41
3.601311e+41
3.584557e+41
3.584845e+41
3.597362e+41
3.610425e+41
3.649566e+41
3.682664e+41
3.675527e+41
3.637606e+41
3.577477e+41
3.525006e+41
3.496014e+41
3.487525e+41
3.519301e+41
3.548400e+41
3.541699e+41
3.542638e+41
3.559082e+41
3.600279e+41
3.664835e+41
3.699738e+41
3.670100e+41
3.659841e+41
3.691881e+41
3.682023e+41
3.622565e+41
3.555335e+41
3.510449e+41
3.519871e+41
3.521105e+41
3.502892e+41
3.512171e+41
3.508699e+41
3.433720e+41
3.330752e+41
3.295597e+41
3.318173e+41
3.314779e+41
3.305718e+41
3.344882e+41
3.352452e+41
3.309257e+41
3.313676e+41
3.335767e+41
3.225950e+41
3.120624e+41
3.130753e+41
3.138693e+41
3.183201e+41
3.250211e+41
3.269158e+41
3.278162e+41
3.376242e+41
3.440531e+41
3.368083e+41
3.333553e+41
3.333015e+41
3.326569e+41
3.332447e+41
3.343902e+41
3.319097e+41
3.314966e+41
3.356067e+41
3.288870e+41
3.173292e+41
3.120773e+41
3.111805e+41
3.121780e+41
3.127560e+41
3.095951e+41
3.053729e+41
3.041849e+41
3.099608e+41
3.216720e+41
3.297246e+41
3.315478e+41
3.312988e+41
3.331535e+41
3.378879e+41
3.384215e+41
3.355667e+41
3.419553e+41
3.504664e+41
3.515474e+41
3.513362e+41
3.507681e+41
3.520309e+41
3.538255e+41
3.551250e+41
3.562142e+41
3.551984e+41
3.551674e+41
3.518749e+41
3.384637e+41
3.212658e+41
3.136434e+41
3.156133e+41
3.232422e+41
3.305204e+41
3.315220e+41
3.325687e+41
3.420590e+41
3.579506e+41
3.717607e+41
3.770924e+41
3.730835e+41
3.693939e+41
3.706711e+41
3.705703e+41
3.695055e+41
3.693271e+41
3.687331e+41
3.689328e+41
3.670075e+41
3.645614e+41
3.636681e+41
3.642251e+41
3.643020e+41
3.616789e+41
3.567435e+41
3.516013e+41
3.500827e+41
3.559500e+41
3.632339e+41
3.660924e+41
3.662936e+41
3.664662e+41
3.695378e+41
3.738171e+41
3.735078e+41
3.664744e+41
3.637589e+41
3.691406e+41
3.705731e+41
3.665393e+41
3.630165e+41
3.605647e+41
3.633251e+41
3.701113e+41
3.738888e+41
3.752888e+41
3.752084e+41
3.730523e+41
3.753041e+41
3.849379e+41
3.973670e+41
4.042677e+41
4.016264e+41
3.942933e+41
3.892671e+41
3.907919e+41
3.912743e+41
3.807475e+41
3.672026e+41
3.617195e+41
3.686697e+41
3.803113e+41
3.851993e+41
3.859639e+41
3.858544e+41
3.858349e+41
3.900659e+41
4.054911e+41
4.139887e+41
4.137723e+41
4.146297e+41
4.144368e+41
4.134372e+41
4.113279e+41
4.071972e+41
4.047742e+41
4.112057e+41
4.098654e+41
3.969778e+41
3.887241e+41
3.870599e+41
3.871579e+41
3.855677e+41
3.815430e+41
3.770904e+41
3.773541e+41
3.774619e+41
3.793367e+41
3.860890e+41
3.885645e+41
3.875871e+41
3.921139e+41
3.986895e+41
3.897236e+41
3.761478e+41
3.784333e+41
3.860110e+41
3.876636e+41
3.878958e+41
3.893558e+41
3.909816e+41
3.936868e+41
3.988129e+41
4.033252e+41
4.045059e+41
4.034588e+41
3.933156e+41
3.763702e+41
3.612082e+41
3.520454e+41
3.499444e+41
3.557678e+41
3.617324e+41
3.625395e+41
3.631283e+41
3.686445e+41
3.816043e+41
3.976584e+41
4.083332e+41
4.090454e+41
4.086678e+41
4.099516e+41
4.081638e+41
4.063113e+41
4.055848e+41
4.045676e+41
4.045061e+41
3.995879e+41
3.919141e+41
3.873013e+41
3.880080e+41
3.895487e+41
3.875056e+41
3.842251e+41
3.825233e+41
3.823406e+41
3.868546e+41
3.933148e+41
3.958432e+41
3.958711e+41
3.940538e+41
3.932097e+41
3.937358e+41
3.903343e+41
3.818976e+41
3.799847e+41
3.858020e+41
3.869276e+41
3.820624e+41
3.749383e+41
3.668247e+41
3.641929e+41
3.700436e+41
3.794513e+41
3.852241e+41
3.857220e+41
3.863258e+41
3.868658e+41
3.858808e+41
3.899552e+41
3.948660e+41
3.983022e+41
4.028492e+41
4.047826e+41
4.046809e+41
4.054766e+41
3.998640e+41
3.798558e+41
3.686696e+41
3.699235e+41
3.759223e+41
3.861296e+41
3.925740e+41
3.927853e+41
3.934807e+41
4.008735e+41
4.056365e+41
4.075210e+41
4.089226e+41
4.085260e+41
4.089488e+41
4.097030e+41
4.072878e+41
4.000731e+41
3.974671e+41
4.001337e+41
3.976818e+41
3.885927e+41
3.808338e+41
3.790835e+41
3.796456e+41
3.750423e+41
3.681422e+41
3.671114e+41
3.671511e+41
3.705806e+41
3.755413e+41
3.798907e+41
3.815507e+41
3.800884e+41
3.826818e+41
3.916499e+41
3.851279e+41
3.706592e+41
3.756141e+41
3.851953e+41
3.880316e+41
3.880941e+41
3.885139e+41
3.910629e+41
3.987562e+41
4.086252e+41
4.142503e+41
4.157362e+41
4.147643e+41
4.076642e+41
3.941847e+41
3.779557e+41
3.658814e+41
3.628288e+41
3.684643e+41
3.755413e+41
3.766282e+41
3.776768e+41
3.839636e+41
3.951934e+41
4.095344e+41
4.217940e+41
4.230789e+41
4.226484e+41
4.244649e+41
4.220594e+41
4.208959e+41
4.204128e+41
4.189480e+41
4.190448e+41
4.147058e+41
4.057521e+41
4.007428e+41
4.015492e+41
4.024934e+41
4.011012e+41
3.985260e+41
3.962417e+41
3.961132e+41
4.003914e+41
4.056230e+41
4.084083e+41
4.084889e+41
4.069676e+41
4.067141e+41
4.066572e+41
4.018027e+41
3.916879e+41
3.858198e+41
3.878273e+41
3.889712e+41
3.882855e+41
3.889932e+41
3.850019e+41
3.727527e+41
3.577226e+41
3.484443e+41
3.469474e+41
3.522681e+41
3.628952e+41
3.684776e+41
3.687705e+41
3.827003e+41
4.027469e+41
4.062320e+41
3.986012e+41
3.945410e+41
3.985475e+41
4.003151e+41
3.921948e+41
3.817159e+41
3.751081e+41
3.781876e+41
3.863993e+41
3.916121e+41
3.948936e+41
3.967807e+41
3.971081e+41
4.070950e+41
4.201946e+41
4.214495e+41
4.204940e+41
4.203642e+41
4.192121e+41
4.192224e+41
4.184571e+41
4.134484e+41
4.134180e+41
4.202599e+41
4.153478e+41
4.035485e+41
3.977294e+41
3.972421e+41
3.977851e+41
3.935198e+41
3.805561e+41
3.760303e+41
3.758864e+41
3.738851e+41
3.782166e+41
3.817878e+41
3.827170e+41
3.822928e+41
3.822479e+41
3.856761e+41
3.801844e+41
3.672266e+41
3.747702e+41
3.878918e+41
3.903008e+41
3.902507e+41
3.906345e+41
3.919946e+41
3.995636e+41
4.123966e+41
4.172040e+41
4.175163e+41
4.158833e+41
4.075643e+41
3.960377e+41
3.815944e+41
3.681483e+41
3.641803e+41
3.704927e+41
3.764382e+41
3.773377e+41
3.778037e+41
3.834546e+41
3.950135e+41
4.103197e+41
4.220731e+41
4.229862e+41
4.228413e+41
4.243917e+41
4.225078e+41
4.210981e+41
4.200345e+41
4.186958e+41
4.187309e+41
4.140747e+41
4.058487e+41
4.009743e+41
4.016304e+41
4.027487e+41
4.010188e+41
3.982367e+41
3.962963e+41
3.961556e+41
4.004227e+41
4.057189e+41
4.079186e+41
4.080636e+41
4.085755e+41
4.123172e+41
4.175804e+41
4.212144e+41
4.213165e+41
4.213757e+41
4.209795e+41
4.126444e+41
4.065881e+41
4.070303e+41
3.933162e+41
3.718464e+41
3.615391e+41
3.590090e+41
3.583919e+41
3.600857e+41
3.684625e+41
3.744729e+41
3.740511e+41
3.874173e+41
4.033390e+41
4.044869e+41
4.004238e+41
3.971769e+41
3.972548e+41
3.983263e+41
3.875797e+41
3.720378e+41
3.670370e+41
3.729911e+41
3.809053e+41
3.849884e+41
3.875073e+41
3.895540e+41
3.890595e+41
3.950587e+41
4.089391e+41
4.141896e+41
4.147421e+41
4.148746e+41
4.135493e+41
4.134305e+41
4.144819e+41
4.135168e+41
4.156156e+41
4.250555e+41
4.238120e+41
4.102760e+41
4.046049e+41
4.050553e+41
4.051983e+41
4.026934e+41
3.924374e+41
3.858197e+41
3.858200e+41
3.832718e+41
3.835175e+41
3.863678e+41
3.872610e+41
3.868277e+41
3.878444e+41
3.925291e+41
3.843198e+41
3.704463e+41
3.795100e+41
3.921010e+41
3.943501e+41
3.941434e+41
3.945326e+41
3.959189e+41
4.038087e+41
4.157934e+41
4.206365e+41
4.213077e+41
4.198211e+41
4.124749e+41
4.007171e+41
3.854004e+41
3.728317e+41
3.689239e+41
3.717524e+41
3.758087e+41
3.772360e+41
3.768066e+41
3.805172e+41
3.927349e+41
4.118605e+41
4.261985e+41
4.265826e+41
4.269021e+41
4.289847e+41
4.266933e+41
4.257811e+41
4.245080e+41
4.229858e+41
4.230689e+41
4.195744e+41
4.116445e+41
4.064729e+41
4.074153e+41
4.079653e+41
4.059220e+41
4.038030e+41
4.023117e+41
4.022057e+41
4.075289e+41
4.125937e+41
4.141431e+41
4.143256e+41
4.145400e+41
4.185363e+41
4.254102e+41
4.308194e+41
4.322583e+41
4.305454e+41
4.241109e+41
4.150489e+41
4.181050e+41
4.256887e+41
4.126599e+41
3.945566e+41
3.877934e+41
3.862516e+41
3.922331e+41
4.015907e+41
4.078552e+41
4.095888e+41
4.094353e+41
4.161983e+41
4.263533e+41
4.326500e+41
4.329271e+41
4.302228e+41
4.280903e+41
4.292676e+41
4.182784e+41
3.977811e+41
3.886192e+41
3.918529e+41
4.028139e+41
4.092677e+41
4.109226e+41
4.110097e+41
4.109483e+41
4.141511e+41
4.275029e+41
4.351786e+41
4.359817e+41
4.351351e+41
4.337444e+41
4.336600e+41
4.348309e+41
4.332796e+41
4.344421e+41
4.468840e+41
4.450684e+41
4.317876e+41
4.273682e+41
4.271446e+41
4.271973e+41
4.249811e+41
4.143610e+41
4.067737e+41
4.067655e+41
4.020265e+41
4.018772e+41
4.063514e+41
4.076382e+41
4.072394e+41
4.084056e+41
4.113827e+41
4.028137e+41
3.893177e+41
3.973700e+41
4.109022e+41
4.134120e+41
4.134651e+41
4.137611e+41
4.137764e+41
4.213428e+41
4.376282e+41
4.451282e+41
4.449914e+41
4.446147e+41
4.391989e+41
4.267294e+41
4.075976e+41
3.927210e+41
3.894417e+41
3.916943e+41
3.945707e+41
3.960790e+41
3.949783e+41
3.987077e+41
4.113662e+41
4.303941e+41
4.429922e+41
4.428586e+41
4.432301e+41
4.447031e+41
4.429322e+41
4.424648e+41
4.407874e+41
4.386869e+41
4.386504e+41
4.338458e+41
4.260280e+41
4.214928e+41
4.226010e+41
4.236882e+41
4.213938e+41
4.179753e+41
4.157528e+41
4.141624e+41
4.184520e+41
4.265078e+41
4.286498e+41
4.213324e+41
4.144828e+41
4.147283e+41
4.124693e+41
4.099239e+41
4.097203e+41
4.031578e+41
3.952012e+41
3.971206e+41
4.045588e+41
4.061652e+41
3.992611e+41
3.840386e+41
3.698134e+41
3.664546e+41
3.685217e+41
3.735266e+41
3.829812e+41
3.901821e+41
3.899216e+41
3.990609e+41
4.067653e+41
3.990703e+41
3.930976e+41
3.920970e+41
3.925882e+41
3.926830e+41
3.856107e+41
3.639177e+41
3.513260e+41
3.577604e+41
3.698450e+41
3.764395e+41
3.781074e+41
3.772121e+41
3.773246e+41
3.777409e+41
3.820605e+41
3.918889e+41
3.953084e+41
3.943906e+41
3.940513e+41
3.940220e+41
3.938541e+41
3.918786e+41
3.911344e+41
4.017497e+41
4.052293e+41
3.930413e+41
3.890165e+41
3.892860e+41
3.893390e+41
3.866556e+41
3.787363e+41
3.728750e+41
3.730521e+41
3.716091e+41
3.685743e+41
3.710490e+41
3.728909e+41
3.725123e+41
3.752122e+41
3.812959e+41
3.705287e+41
3.565613e+41
3.640682e+41
3.760195e+41
3.792651e+41
3.791807e+41
3.797180e+41
3.803250e+41
3.875368e+41
4.023992e+41
4.117402e+41
4.124014e+41
4.122313e+41
4.072930e+41
3.946883e+41
3.755532e+41
3.617964e+41
3.587194e+41
3.615689e+41
3.658985e+41
3.673807e+41
3.664076e+41
3.697000e+41
3.816127e+41
4.013743e+41
4.149178e+41
4.141192e+41
4.153797e+41
4.186474e+41
4.175316e+41
4.158392e+41
4.129546e+41
4.099156e+41
4.106886e+41
4.098530e+41
4.047099e+41
4.001256e+41
3.999742e+41
4.007314e+41
4.017468e+41
4.063049e+41
4.145653e+41
4.184194e+41
4.181271e+41
4.144132e+41
4.052458e+41
3.961401e+41
3.966845e+41
4.055778e+41
4.091746e+41
4.091903e+41
4.115265e+41
4.119944e+41
4.079710e+41
4.003857e+41
4.011933e+41
4.071735e+41
3.980514e+41
3.887648e+41
3.863455e+41
3.868668e+41
3.917217e+41
3.969393e+41
4.038060e+41
4.080815e+41
4.071504e+41
4.126867e+41
4.200535e+41
4.146318e+41
4.083528e+41
4.068316e+41
4.083940e+41
4.089855e+41
4.050120e+41
3.910945e+41
3.754686e+41
3.824144e+41
3.954227e+41
3.996127e+41
4.009382e+41
4.019023e+41
4.019256e+41
4.067057e+41
4.145270e+41
4.184251e+41
4.211123e+41
4.184365e+41
4.169838e+41
4.171222e+41
4.172005e+41
4.139923e+41
4.141040e+41
4.281093e+41
4.346438e+41
4.265992e+41
4.233072e+41
4.267904e+41
4.291651e+41
4.269727e+41
4.161642e+41
4.081896e+41
4.116239e+41
4.122211e+41
4.025559e+41
3.993562e+41
3.993923e+41
3.995311e+41
3.984549e+41
4.038915e+41
3.968002e+41
3.817885e+41
3.903943e+41
3.972778e+41
3.971790e+41
3.981235e+41
3.980484e+41
3.972334e+41
3.991075e+41
4.207487e+41
4.503426e+41
4.576271e+41
4.585297e+41
4.608831e+41
4.503366e+41
4.309965e+41
4.178205e+41
4.184410e+41
4.186252e+41
4.140621e+41
4.144721e+41
4.162442e+41
4.176622e+41
4.242909e+41
4.428670e+41
4.577147e+41
4.567904e+41
4.590450e+41
4.597625e+41
4.584691e+41
4.597195e+41
4.549499e+41
4.497536e+41
4.460579e+41
4.550136e+41
4.747002e+41
4.795518e+41
4.798423e+41
4.787300e+41
4.696517e+41
4.674549e+41
4.691320e+41
4.659386e+41
4.697104e+41
4.827088e+41
4.846276e+41
4.792301e+41
4.971103e+41
5.167511e+41
5.155445e+41
5.154280e+41
5.157152e+41
5.104528e+41
5.065946e+41
5.091000e+41
5.112000e+41
5.112389e+41
5.077590e+41
4.954225e+41
4.888159e+41
4.940572e+41
5.040752e+41
5.079857e+41
5.082191e+41
5.071361e+41
5.045658e+41
5.043213e+41
4.966138e+41
4.974698e+41
5.090302e+41
5.134312e+41
5.125550e+41
5.142968e+41
5.125046e+41
4.954747e+41
4.867045e+41
5.114317e+41
5.340186e+41
5.369252e+41
5.367718e+41
5.373037e+41
5.371439e+41
5.409331e+41
5.487787e+41
5.421182e+41
5.396029e+41
5.384715e+41
5.335459e+41
5.335337e+41
5.323800e+41
5.298667e+41
5.294716e+41
5.284146e+41
5.309867e+41
5.388041e+41
5.388830e+41
5.446828e+41
5.525823e+41
5.556820e+41
5.438674e+41
5.332874e+41
5.390670e+41
5.416340e+41
5.423594e+41
5.441242e+41
5.441745e+41
5.445160e+41
5.475037e+41
5.648267e+41
5.496975e+41
5.145920e+41
5.199531e+41
5.235222e+41
5.166664e+41
5.160344e+41
5.160197e+41
5.142130e+41
5.143526e+41
5.409673e+41
5.754978e+41
5.817171e+41
5.808531e+41
5.845556e+41
5.788806e+41
5.601891e+41
5.457865e+41
5.499892e+41
5.526230e+41
5.509884e+41
5.511495e+41
5.506639e+41
5.540664e+41
5.599017e+41
5.794023e+41
5.857856e+41
5.672941e+41
5.638573e+41
5.645003e+41
5.639279e+41
5.655295e+41
5.630364e+41
5.638669e+41
5.637184e+41
5.654825e+41
5.672508e+41
5.672292e+41
5.643760e+41
5.415241e+41
5.218856e+41
5.224243e+41
5.236524e+41
5.223373e+41
5.296225e+41
5.427137e+41
5.378759e+41
5.339239e+41
5.569943e+41
5.732714e+41
5.727234e+41
5.733892e+41
5.692330e+41
5.599727e+41
5.572796e+41
5.652558e+41
5.729735e+41
5.731236e+41
5.755574e+41
5.757758e+41
5.619351e+41
5.516120e+41
5.556623e+41
5.607575e+41
5.599912e+41
5.552121e+41
5.541510e+41
5.492714e+41
5.242074e+41
5.150444e+41
5.283784e+41
5.346978e+41
5.342519e+41
5.359904e+41
5.329607e+41
5.121924e+41
5.086385e+41
5.356489e+41
5.571453e+41
5.596552e+41
5.572686e+41
5.574052e+41
5.570868e+41
5.643026e+41
5.833308e+41
5.794703e+41
5.692745e+41
5.697505e+41
5.644597e+41
5.583712e+41
5.550475e+41
5.545911e+41
5.546360e+41
5.510118e+41
5.495270e+41
5.515147e+41
5.498558e+41
5.545583e+41
5.628619e+41
5.629756e+41
5.444737e+41
5.347833e+41
5.395196e+41
5.386861e+41
5.412415e+41
5.425461e+41
5.427221e+41
5.424902e+41
5.451027e+41
5.607331e+41
5.420964e+41
5.090626e+41
5.159944e+41
5.198276e+41
5.144576e+41
5.142739e+41
5.140731e+41
5.110170e+41
5.081498e+41
5.316528e+41
5.653617e+41
5.720813e+41
5.709149e+41
5.734538e+41
5.657360e+41
5.467243e+41
5.353797e+41
5.408282e+41
5.441484e+41
5.438398e+41
5.437028e+41
5.444877e+41
5.479066e+41
5.546877e+41
5.746867e+41
5.815695e+41
5.664905e+41
5.634845e+41
5.646670e+41
5.641664e+41
5.649724e+41
5.642728e+41
5.720326e+41
5.781866e+41
5.702433e+41
5.555490e+41
5.516238e+41
5.482098e+41
5.257018e+41
5.093636e+41
5.082770e+41
5.078757e+41
5.107390e+41
5.191531e+41
5.273342e+41
5.230931e+41
5.162468e+41
5.361357e+41
5.619853e+41
5.647162e+41
5.668166e+41
5.677483e+41
5.591514e+41
5.542100e+41
5.589488e+41
5.725851e+41
5.744090e+41
5.793569e+41
5.841002e+41
5.709182e+41
5.660623e+41
5.695031e+41
5.715042e+41
5.705985e+41
5.671468e+41
5.664376e+41
5.618370e+41
5.386581e+41
5.263545e+41
5.371785e+41
5.455462e+41
5.452475e+41
5.498712e+41
5.531714e+41
5.352739e+41
5.281795e+41
5.417459e+41
5.556383e+41
5.603440e+41
5.595318e+41
5.606218e+41
5.602538e+41
5.706662e+41
5.926470e+41
5.889524e+41
5.793725e+41
5.804455e+41
5.755392e+41
5.712620e+41
5.678754e+41
5.686238e+41
5.687692e+41
5.670244e+41
5.682059e+41
5.681506e+41
5.665377e+41
5.696224e+41
5.756203e+41
5.769294e+41
5.598228e+41
5.506128e+41
5.571740e+41
5.548713e+41
5.553863e+41
5.569583e+41
5.580617e+41
5.579377e+41
5.619296e+41
5.774468e+41
5.569911e+41
5.239836e+41
5.286624e+41
5.321407e+41
5.263147e+41
5.258929e+41
5.255118e+41
5.223276e+41
5.181861e+41
5.406323e+41
5.764489e+41
5.834513e+41
5.825360e+41
5.849004e+41
5.763933e+41
5.571863e+41
5.453865e+41
5.505072e+41
5.539044e+41
5.533500e+41
5.537756e+41
5.555568e+41
5.570739e+41
5.560622e+41
5.715127e+41
5.899075e+41
5.916678e+41
5.909905e+41
5.931928e+41
6.077481e+41
6.192982e+41
6.183222e+41
6.316952e+41
6.473655e+41
6.414252e+41
6.319956e+41
6.333679e+41
6.345261e+41
6.142624e+41
5.859704e+41
5.808958e+41
5.791185e+41
5.738910e+41
5.861587e+41
6.053219e+41
6.040435e+41
5.938114e+41
6.138942e+41
6.294095e+41
6.258357e+41
6.261955e+41
6.184377e+41
6.107964e+41
6.098899e+41
6.135714e+41
6.216791e+41
6.237532e+41
6.259221e+41
6.293621e+41
6.195441e+41
6.169602e+41
6.216207e+41
6.236207e+41
6.191100e+41
6.095341e+41
6.074294e+41
6.061534e+41
5.979261e+41
5.942388e+41
6.007885e+41
6.077209e+41
6.079128e+41
6.093332e+41
6.054924e+41
5.826648e+41
5.779531e+41
5.914065e+41
5.991884e+41
6.009561e+41
5.991013e+41
6.020743e+41
6.005507e+41
6.131032e+41
6.349128e+41
6.279258e+41
6.208884e+41
6.223857e+41
6.192750e+41
6.182618e+41
6.139298e+41
6.139524e+41
6.141569e+41
6.109939e+41
6.149618e+41
6.161793e+41
6.143578e+41
6.164524e+41
6.212511e+41
6.212690e+41
6.049227e+41
5.973181e+41
6.057742e+41
6.067316e+41
6.066176e+41
6.082367e+41
6.100277e+41
6.101253e+41
6.152834e+41
6.326984e+41
6.119724e+41
5.771603e+41
5.807431e+41
5.837035e+41
5.777748e+41
5.776187e+41
5.769356e+41
5.740127e+41
5.701094e+41
5.918458e+41
6.294866e+41
6.367857e+41
6.360820e+41
6.394875e+41
6.311573e+41
6.103277e+41
5.950322e+41
5.976887e+41
6.038993e+41
6.028019e+41
5.878039e+41
5.744760e+41
5.744537e+41
5.609963e+41
5.437137e+41
5.426506e+41
5.409400e+41
5.353852e+41
5.456641e+41
5.759096e+41
5.876231e+41
5.892969e+41
6.121255e+41
6.252917e+41
6.120073e+41
5.953978e+41
5.930160e+41
5.898466e+41
5.682532e+41
5.491819e+41
5.457957e+41
5.453652e+41
5.442784e+41
5.513572e+41
5.680624e+41
5.748957e+41
5.654093e+41
5.776867e+41
5.913302e+41
5.852029e+41
5.867913e+41
5.765978e+41
5.635808e+41
5.629933e+41
5.748047e+41
5.868713e+41
5.860682e+41
5.912862e+41
5.916158e+41
5.811045e+41
5.797681e+41
5.812479e+41
5.817392e+41
5.807450e+41
5.753339e+41
5.752437e+41
5.718348e+41
5.638326e+41
5.662002e+41
5.751341e+41
5.811404e+41
5.798529e+41
5.811148e+41
5.759468e+41
5.517597e+41
5.479599e+41
5.622856e+41
5.690947e+41
5.702313e+41
5.678428e+41
5.715565e+41
5.697501e+41
5.832785e+41
6.038627e+41
5.944465e+41
5.880176e+41
5.888474e+41
5.856162e+41
5.848951e+41
5.805569e+41
5.794823e+41
5.798354e+41
5.740030e+41
5.774084e+41
5.806445e+41
5.789932e+41
5.809324e+41
5.854241e+41
5.834844e+41
5.661261e+41
5.594379e+41
5.674384e+41
5.697858e+41
5.696039e+41
5.709255e+41
5.728699e+41
5.733297e+41
5.784455e+41
5.964431e+41
5.760244e+41
5.396314e+41
5.424184e+41
5.445095e+41
5.380445e+41
5.379124e+41
5.371826e+41
5.346764e+41
5.309045e+41
5.505168e+41
5.870385e+41
5.950759e+41
5.963404e+41
6.030414e+41
6.034386e+41
6.018450e+41
6.032188e+41
6.100944e+41
6.177463e+41
6.077561e+41
5.775351e+41
5.663065e+41
5.640546e+41
5.413757e+41
5.301223e+41
5.321604e+41
5.293420e+41
5.275066e+41
5.400628e+41
5.726575e+41
5.835634e+41
5.858871e+41
6.097645e+41
6.206381e+41
6.114725e+41
5.962026e+41
5.864285e+41
5.867131e+41
5.725520e+41
5.578802e+41
5.570784e+41
5.557174e+41
5.569607e+41
5.654164e+41
5.818477e+41
5.818050e+41
5.687037e+41
5.830931e+41
5.933050e+41
5.885670e+41
5.898675e+41
5.802781e+41
5.700331e+41
5.695028e+41
5.808452e+41
5.920141e+41
5.912440e+41
5.962345e+41
5.960257e+41
5.850166e+41
5.841408e+41
5.863511e+41
5.865981e+41
5.856809e+41
5.791212e+41
5.784187e+41
5.747773e+41
5.657783e+41
5.686971e+41
5.776180e+41
5.827675e+41
5.804888e+41
5.817137e+41
5.753626e+41
5.518393e+41
5.491109e+41
5.640323e+41
5.715071e+41
5.727154e+41
5.712804e+41
5.749404e+41
5.734851e+41
5.874696e+41
6.091637e+41
5.993817e+41
5.918622e+41
5.928114e+41
5.890854e+41
5.884857e+41
5.849158e+41
5.837246e+41
5.841425e+41
5.786421e+41
5.818144e+41
5.853759e+41
5.841313e+41
5.862509e+41
5.906791e+41
5.891930e+41
5.715896e+41
5.649967e+41
5.727933e+41
5.756460e+41
5.762487e+41
5.776861e+41
5.798315e+41
5.802821e+41
5.856887e+41
6.044638e+41
5.856026e+41
5.497278e+41
5.523342e+41
5.545248e+41
5.478303e+41
5.476869e+41
5.466836e+41
5.435549e+41
5.387218e+41
5.566871e+41
5.925259e+41
6.010965e+41
6.024712e+41
6.093057e+41
6.097155e+41
6.066328e+41
6.050763e+41
6.054196e+41
6.052597e+41
5.976588e+41
5.789179e+41
5.726577e+41
5.702214e+41
5.493725e+41
5.358426e+41
5.390041e+41
5.408036e+41
5.430616e+41
5.510580e+41
5.663372e+41
5.744728e+41
5.742042e+41
5.885984e+41
6.060918e+41
6.003305e+41
5.851785e+41
5.796300e+41
5.805006e+41
5.654878e+41
5.503457e+41
5.514196e+41
5.498884e+41
5.534497e+41
5.677527e+41
5.816771e+41
5.770157e+41
5.644953e+41
5.737857e+41
5.852309e+41
5.828870e+41
5.839789e+41
5.757231e+41
5.650340e+41
5.632539e+41
5.739343e+41
5.898444e+41
5.895038e+41
5.967685e+41
5.973486e+41
5.870687e+41
5.876494e+41
5.875161e+41
5.871709e+41
5.868749e+41
5.808845e+41
5.796659e+41
5.759348e+41
5.649922e+41
5.665778e+41
5.776873e+41
5.842599e+41
5.815422e+41
5.830521e+41
5.747460e+41
5.505183e+41
5.470920e+41
5.605344e+41
5.687729e+41
5.703950e+41
5.684372e+41
5.714972e+41
5.701307e+41
5.826887e+41
6.050493e+41
5.954410e+41
5.879903e+41
5.890930e+41
5.855234e+41
5.854821e+41
5.816753e+41
5.806043e+41
5.809697e+41
5.755646e+41
5.772054e+41
5.797111e+41
5.783358e+41
5.807309e+41
5.872557e+41
5.890486e+41
5.749001e+41
5.685638e+41
5.701740e+41
5.684572e+41
5.702148e+41
5.744306e+41
5.788870e+41
5.790964e+41
5.879636e+41
6.104961e+41
5.900070e+41
5.557251e+41
5.596588e+41
5.603141e+41
5.538049e+41
5.531856e+41
5.534946e+41
5.533349e+41
5.570411e+41
5.862449e+41
6.187003e+41
6.164999e+41
6.106683e+41
6.103269e+41
6.106427e+41
6.204021e+41
6.232288e+41
6.188536e+41
6.203425e+41
6.295893e+41
6.262971e+41
6.170873e+41
6.197524e+41
6.059014e+41
5.879153e+41
5.887986e+41
5.867232e+41
5.818343e+41
5.928137e+41
6.161841e+41
6.242745e+41
6.235830e+41
6.396637e+41
6.491265e+41
6.361938e+41
6.221502e+41
6.190848e+41
6.207491e+41
6.110868e+41
5.946537e+41
5.921338e+41
5.908107e+41
5.906486e+41
6.043436e+41
6.235208e+41
6.199075e+41
6.031540e+41
6.130184e+41
6.184436e+41
6.143714e+41
6.141532e+41
6.045504e+41
5.970107e+41
5.962379e+41
6.042417e+41
6.175874e+41
6.183387e+41
6.245836e+41
6.282536e+41
6.188207e+41
6.191300e+41
6.191360e+41
6.189168e+41
6.180071e+41
6.138714e+41
6.134102e+41
6.107897e+41
6.022905e+41
6.022224e+41
6.115294e+41
6.186989e+41
6.162184e+41
6.197586e+41
6.183605e+41
5.958800e+41
5.899069e+41
5.996953e+41
6.082465e+41
6.122489e+41
6.118776e+41
6.146476e+41
6.133053e+41
6.280807e+41
6.482469e+41
6.385034e+41
6.318629e+41
6.325029e+41
6.288240e+41
6.260393e+41
6.183943e+41
6.134696e+41
6.130725e+41
6.146862e+41
6.200867e+41
6.206320e+41
6.164209e+41
6.155160e+41
6.225560e+41
6.222977e+41
6.043733e+41
5.991017e+41
5.984579e+41
5.936786e+41
5.968299e+41
6.017540e+41
6.069553e+41
6.065249e+41
6.157625e+41
6.348835e+41
6.110809e+41
5.764597e+41
5.758836e+41
5.786692e+41
5.788095e+41
5.753276e+41
5.682015e+41
5.683292e+41
5.685690e+41
5.688234e+41
5.624555e+41
5.536460e+41
5.543865e+41
5.566002e+41
5.687995e+41
5.753274e+41
5.723363e+41
5.720214e+41
5.734606e+41
5.698635e+41
5.574249e+41
5.516186e+41
5.510317e+41
5.369866e+41
5.231561e+41
5.254030e+41
5.274291e+41
5.258454e+41
5.315651e+41
5.504230e+41
5.629626e+41
5.625987e+41
5.820165e+41
5.993318e+41
5.865071e+41
5.704696e+41
5.664703e+41
5.664935e+41
5.558826e+41
5.441527e+41
5.426614e+41
5.419750e+41
5.425491e+41
5.524631e+41
5.703310e+41
5.718581e+41
5.568909e+41
5.688598e+41
5.765120e+41
5.699657e+41
5.703386e+41
5.578217e+41
5.484149e+41
5.485913e+41
5.579485e+41
5.688209e+41
5.689505e+41
5.734946e+41
5.749700e+41
5.660907e+41
5.667728e+41
5.679021e+41
5.682220e+41
5.649796e+41
5.549754e+41
5.522916e+41
5.514655e+41
5.472600e+41
5.481660e+41
5.560146e+41
5.647152e+41
5.668833e+41
5.667372e+41
5.565595e+41
5.342046e+41
5.293928e+41
5.349861e+41
5.396382e+41
5.431950e+41
5.472124e+41
5.524276e+41
5.514730e+41
5.724801e+41
5.920912e+41
5.805741e+41
5.752363e+41
5.755327e+41
5.740696e+41
5.707050e+41
5.614861e+41
5.565260e+41
5.561625e+41
5.586202e+41
5.635313e+41
5.629493e+41
5.576559e+41
5.554766e+41
5.632771e+41
5.644044e+41
5.480153e+41
5.427561e+41
5.422417e+41
5.352316e+41
5.349992e+41
5.374537e+41
5.397890e+41
5.371790e+41
5.407909e+41
5.584235e+41
5.574632e+41
5.468606e+41
5.446932e+41
5.443723e+41
5.496157e+41
5.447210e+41
5.364220e+41
5.437690e+41
5.488528e+41
5.464806e+41
5.495733e+41
5.512545e+41
5.541725e+41
5.564451e+41
5.582065e+41
5.633767e+41
5.635785e+41
5.600869e+41
5.628922e+41
5.724711e+41
5.633093e+41
5.507479e+41
5.518038e+41
5.324201e+41
5.135097e+41
5.138311e+41
5.117971e+41
5.132527e+41
5.244529e+41
5.390168e+41
5.455572e+41
5.448102e+41
5.587530e+41
5.776574e+41
5.699756e+41
5.554044e+41
5.512454e+41
5.514861e+41
5.380331e+41
5.249499e+41
5.254174e+41
5.245277e+41
5.280637e+41
5.387859e+41
5.524232e+41
5.521607e+41
5.390507e+41
5.510891e+41
5.632683e+41
5.581399e+41
5.596178e+41
5.485943e+41
5.380230e+41
5.378789e+41
5.495680e+41
5.617292e+41
5.609762e+41
5.663225e+41
5.660931e+41
5.558081e+41
5.535498e+41
5.502536e+41
5.469407e+41
5.472967e+41
5.436420e+41
5.427806e+41
5.420416e+41
5.418556e+41
5.484363e+41
5.573639e+41
5.616340e+41
5.613352e+41
5.605696e+41
5.444464e+41
5.224132e+41
5.199954e+41
5.253135e+41
5.305824e+41
5.326393e+41
5.368293e+41
5.428320e+41
5.417168e+41
5.633266e+41
5.826057e+41
5.729655e+41
5.688824e+41
5.690700e+41
5.685009e+41
5.642034e+41
5.533158e+41
5.483119e+41
5.481272e+41
5.507413e+41
5.584682e+41
5.611440e+41
5.585377e+41
5.595156e+41
5.674238e+41
5.679735e+41
5.564885e+41
5.521082e+41
5.540257e+41
5.568979e+41
5.587602e+41
5.509324e+41
5.452263e+41
5.452246e+41
5.465649e+41
5.587469e+41
5.628009e+41
5.520529e+41
5.411202e+41
5.365194e+41
5.449378e+41
5.509361e+41
5.459356e+41
5.446657e+41
5.447091e+41
5.507527e+41
5.737089e+41
6.014022e+41
6.156565e+41
6.168329e+41
6.169275e+41
6.164024e+41
6.165973e+41
6.188383e+41
6.171755e+41
6.065305e+41
5.922210e+41
5.861047e+41
5.885270e+41
5.751451e+41
5.547830e+41
5.618876e+41
5.714611e+41
5.674208e+41
5.697814e+41
5.733003e+41
5.726543e+41
5.712416e+41
5.873236e+41
6.311504e+41
6.251173e+41
6.378982e+41
6.610966e+41
6.621786e+41
6.826791e+41
6.791379e+41
6.775275e+41
6.757287e+41
6.809957e+41
6.942314e+41
6.973157e+41
6.856603e+41
6.790770e+41
6.837493e+41
6.795907e+41
6.955432e+41
7.100223e+41
6.993747e+41
6.894907e+41
6.963515e+41
7.178635e+41
7.178888e+41
7.262634e+41
7.324882e+41
7.292994e+41
7.277902e+41
7.138533e+41
7.151841e+41
7.227209e+41
7.226497e+41
7.237388e+41
7.251770e+41
7.244986e+41
7.231293e+41
7.279291e+41
7.401065e+41
7.592726e+41
7.848234e+41
8.015191e+41
7.815419e+41
7.579045e+41
7.574230e+41
7.564369e+41
7.636511e+41
7.774777e+41
7.867875e+41
7.925416e+41
7.935795e+41
7.947952e+41
7.896117e+41
7.825061e+41
7.845140e+41
7.860544e+41
7.826706e+41
7.748527e+41
7.648126e+41
7.603140e+41
7.752207e+41
7.847379e+41
7.800956e+41
7.868148e+41
7.920898e+41
7.898210e+41
8.022931e+41
8.135104e+41
8.042508e+41
8.005915e+41
8.019055e+41
8.113143e+41
8.168335e+41
8.092985e+41
8.241062e+41
8.268330e+41
8.428062e+41
8.753954e+41
8.667153e+41
8.290466e+41
7.917899e+41
7.959687e+41
8.099337e+41
8.098396e+41
8.241609e+41
8.277667e+41
8.325166e+41
8.729206e+41
9.053102e+41
9.133885e+41
9.169070e+41
9.269256e+41
9.351031e+41
9.339779e+41
9.259234e+41
9.136578e+41
9.247747e+41
9.273299e+41
9.240617e+41
9.236806e+41
9.282144e+41
9.179732e+41
8.709746e+41
8.878292e+41
8.760524e+41
8.432005e+41
8.464647e+41
8.133261e+41
8.013262e+41
8.013685e+41
8.240752e+41
8.567060e+41
8.456776e+41
8.629498e+41
8.873057e+41
8.802534e+41
8.997635e+41
9.142614e+41
8.927968e+41
8.780426e+41
8.816673e+41
8.967192e+41
8.955099e+41
8.741152e+41
8.855859e+41
8.848591e+41
8.784158e+41
8.775400e+41
8.699776e+41
9.046511e+41
9.217855e+41
9.091667e+41
9.393216e+41
9.609639e+41
9.571652e+41
9.656480e+41
9.645073e+41
9.550122e+41
9.405908e+41
9.140630e+41
8.929422e+41
8.809884e+41
8.804607e+41
8.895472e+41
8.895288e+41
8.952701e+41
9.126913e+41
9.178585e+41
9.197444e+41
9.362028e+41
9.611436e+41
9.662729e+41
9.696330e+41
9.728011e+41
9.656209e+41
9.798812e+41
9.951023e+41
1.000385e+42
1.005489e+42
1.011758e+42
9.985369e+41
9.883796e+41
9.951004e+41
9.889049e+41
9.820776e+41
9.828153e+41
9.710097e+41
9.505160e+41
9.453665e+41
9.549024e+41
9.625831e+41
9.519341e+41
9.520761e+41
9.591094e+41
9.344403e+41
9.477780e+41
9.532999e+41
9.263786e+41
9.240131e+41
9.249401e+41
9.382671e+41
9.246068e+41
9.132587e+41
9.339367e+41
9.213034e+41
9.320576e+41
9.524036e+41
9.122811e+41
8.805908e+41
8.721234e+41
8.834165e+41
8.897950e+41
8.810170e+41
8.968028e+41
9.010559e+41
9.096210e+41
9.428982e+41
9.684347e+41
9.750850e+41
9.799350e+41
9.859301e+41
9.843638e+41
9.846069e+41
9.688560e+41
9.527981e+41
9.615048e+41
9.630559e+41
9.627141e+41
9.611769e+41
9.650361e+41
9.447237e+41
9.079772e+41
9.239547e+41
9.141491e+41
8.894880e+41
8.922960e+41
8.677135e+41
8.529323e+41
8.529819e+41
8.758252e+41
9.068558e+41
8.933078e+41
9.051730e+41
9.269892e+41
9.141329e+41
9.273623e+41
9.450082e+41
9.441389e+41
9.413576e+41
9.091939e+41
8.930707e+41
9.023748e+41
8.728509e+41
8.604462e+41
8.693895e+41
8.609741e+41
8.592935e+41
8.619763e+41
8.947872e+41
9.221906e+41
9.117860e+41
9.342157e+41
9.595542e+41
9.495288e+41
9.552076e+41
9.541885e+41
9.300590e+41
9.113313e+41
8.969816e+41
8.857233e+41
8.637597e+41
8.587562e+41
8.661656e+41
8.597268e+41
8.659400e+41
8.743596e+41
8.801842e+41
8.903387e+41
9.082840e+41
9.287777e+41
9.350268e+41
9.343464e+41
9.313594e+41
9.301482e+41
9.504208e+41
9.679733e+41
9.739385e+41
9.814116e+41
9.917314e+41
9.864512e+41
9.783679e+41
9.897928e+41
9.904909e+41
9.803544e+41
9.803499e+41
9.641057e+41
9.400560e+41
9.356657e+41
9.454944e+41
9.550270e+41
9.419226e+41
9.484023e+41
9.631106e+41
9.433353e+41
9.512070e+41
9.488577e+41
9.219529e+41
9.190299e+41
9.266095e+41
9.475002e+41
9.345671e+41
9.258337e+41
9.497415e+41
9.348600e+41
9.482412e+41
9.664616e+41
9.222396e+41
8.933244e+41
8.866427e+41
9.004401e+41
9.085619e+41
9.043358e+41
9.203692e+41
9.198104e+41
9.311113e+41
9.671944e+41
9.888914e+41
9.958103e+41
1.002074e+42
1.009611e+42
1.010599e+42
1.009771e+42
9.962278e+41
9.844175e+41
9.913614e+41
9.932911e+41
9.934709e+41
9.925999e+41
9.954928e+41
9.746487e+41
9.417405e+41
9.567581e+41
9.502316e+41
9.279383e+41
9.312182e+41
9.094261e+41
8.934998e+41
8.927558e+41
9.165799e+41
9.505521e+41
9.369903e+41
9.488983e+41
9.719650e+41
9.565530e+41
9.559910e+41
9.565705e+41
9.704367e+41
1.009455e+42
9.921443e+41
9.646759e+41
9.837711e+41
9.670148e+41
9.410793e+41
9.529223e+41
9.524414e+41
9.482076e+41
9.481082e+41
9.553521e+41
9.763669e+41
9.693294e+41
9.754516e+41
1.013081e+42
1.010595e+42
1.017241e+42
1.028234e+42
1.004099e+42
9.950148e+41
9.794993e+41
9.781046e+41
9.632570e+41
9.593651e+41
9.799794e+41
9.770300e+41
9.898953e+41
9.894119e+41
9.816337e+41
9.915680e+41
1.021103e+42
1.037190e+42
1.035286e+42
1.035150e+42
1.024069e+42
1.019349e+42
1.032037e+42
1.047963e+42
1.059178e+42
1.068093e+42
1.075188e+42
1.068913e+42
1.056492e+42
1.065265e+42
1.064506e+42
1.046142e+42
1.045335e+42
1.035580e+42
1.022585e+42
1.021254e+42
1.033571e+42
1.039318e+42
1.018502e+42
1.027957e+42
1.033971e+42
1.010555e+42
1.017603e+42
1.010065e+42
9.847702e+41
9.832456e+41
9.886727e+41
1.007023e+42
9.925598e+41
9.823585e+41
1.008091e+42
9.915592e+41
1.007968e+42
1.027033e+42
9.839964e+41
9.588949e+41
9.521332e+41
9.652204e+41
9.711095e+41
9.679305e+41
9.822093e+41
9.820535e+41
9.927655e+41
1.029653e+42
1.053990e+42
1.061366e+42
1.066785e+42
1.074059e+42
1.075597e+42
1.075384e+42
1.064260e+42
1.051170e+42
1.057488e+42
1.057874e+42
1.057514e+42
1.055880e+42
1.056811e+42
1.034018e+42
9.992485e+41
1.011067e+42
9.996431e+41
9.760562e+41
9.778611e+41
9.692455e+41
9.695478e+41
9.543631e+41
9.364604e+41
9.509065e+41
9.510358e+41
9.514951e+41
9.620554e+41
9.616474e+41
9.563976e+41
9.492917e+41
9.629548e+41
1.002690e+42
1.011063e+42
9.900705e+41
1.005995e+42
1.006015e+42
9.676965e+41
9.731781e+41
9.723570e+41
9.551821e+41
9.556057e+41
9.544302e+41
9.756957e+41
9.569721e+41
9.555170e+41
9.889013e+41
9.751094e+41
9.826017e+41
9.851136e+41
9.645151e+41
9.651523e+41
9.486703e+41
9.325489e+41
9.165539e+41
9.177853e+41
9.405614e+41
9.414407e+41
9.494398e+41
9.488095e+41
9.365988e+41
9.333501e+41
9.549433e+41
9.794775e+41
9.823396e+41
9.824019e+41
9.740309e+41
9.642943e+41
9.726252e+41
9.901049e+41
1.006410e+42
1.016399e+42
1.021829e+42
1.011428e+42
9.965682e+41
1.003215e+42
1.001814e+42
9.885795e+41
9.882140e+41
9.804454e+41
9.688803e+41
9.662646e+41
9.769875e+41
9.866394e+41
9.684868e+41
9.783227e+41
9.880178e+41
9.626093e+41
9.706522e+41
9.600810e+41
9.318128e+41
9.309198e+41
9.371320e+41
9.559607e+41
9.401175e+41
9.316515e+41
9.556144e+41
9.407629e+41
9.560702e+41
9.745978e+41
9.328857e+41
9.058312e+41
8.982754e+41
9.120613e+41
9.203581e+41
9.168500e+41
9.320256e+41
9.313687e+41
9.425613e+41
9.801982e+41
1.004447e+42
1.011767e+42
1.017764e+42
1.027500e+42
1.029822e+42
1.029722e+42
1.021452e+42
1.011687e+42
1.017669e+42
1.019241e+42
1.019163e+42
1.018222e+42
1.018289e+42
9.946760e+41
9.638376e+41
9.754158e+41
9.654956e+41
9.439592e+41
9.458116e+41
9.388122e+41
9.393291e+41
9.259136e+41
9.101905e+41
9.237861e+41
9.240143e+41
9.240252e+41
9.332423e+41
9.326274e+41
9.260212e+41
9.188058e+41
9.325789e+41
9.727411e+41
9.812986e+41
9.604611e+41
9.769921e+41
9.765973e+41
9.395687e+41
9.451021e+41
9.443033e+41
9.272273e+41
9.277476e+41
9.277679e+41
9.501601e+41
9.335053e+41
9.288226e+41
9.532324e+41
9.327622e+41
9.446894e+41
9.548276e+41
9.421171e+41
9.543805e+41
9.470288e+41
9.381566e+41
9.230050e+41
9.193905e+41
9.445823e+41
9.464122e+41
9.555770e+41
9.606847e+41
9.474378e+41
9.379277e+41
9.542732e+41
9.811301e+41
9.868415e+41
9.870243e+41
9.816326e+41
9.708689e+41
9.792019e+41
9.986641e+41
1.013824e+42
1.022606e+42
1.028432e+42
1.019714e+42
1.002843e+42
1.010131e+42
1.007185e+42
9.907890e+41
9.905421e+41
9.814480e+41
9.704551e+41
9.687923e+41
9.792943e+41
9.860456e+41
9.671620e+41
9.769085e+41
9.863445e+41
9.627296e+41
9.706623e+41
9.630099e+41
9.361307e+41
9.348303e+41
9.409808e+41
9.602116e+41
9.442422e+41
9.350569e+41
9.597371e+41
9.439240e+41
9.595875e+41
9.776260e+41
9.357319e+41
9.097491e+41
9.027246e+41
9.154115e+41
9.225247e+41
9.191871e+41
9.344977e+41
9.347542e+41
9.456306e+41
9.842691e+41
1.009509e+42
1.016871e+42
1.022967e+42
1.033346e+42
1.035868e+42
1.036164e+42
1.029029e+42
1.019377e+42
1.025378e+42
1.026790e+42
1.026704e+42
1.025580e+42
1.025927e+42
1.002420e+42
9.718005e+41
9.843195e+41
9.762649e+41
9.564884e+41
9.565244e+41
9.576291e+41
9.937436e+41
1.008252e+42
9.681405e+41
9.568990e+41
9.612300e+41
9.416342e+41
9.313635e+41
9.310258e+41
9.175063e+41
9.106801e+41
9.126219e+41
9.167253e+41
9.114738e+41
8.897089e+41
8.914836e+41
8.969432e+41
8.684035e+41
8.793825e+41
8.828479e+41
8.624299e+41
8.627004e+41
8.559189e+41
8.934626e+41
8.796020e+41
8.804427e+41
9.193269e+41
8.946947e+41
9.160241e+41
9.205219e+41
9.085157e+41
9.160541e+41
9.096295e+41
9.026043e+41
8.779677e+41
8.728491e+41
8.874347e+41
8.886467e+41
8.918334e+41
8.938861e+41
8.846332e+41
8.779684e+41
8.869036e+41
9.093553e+41
9.188803e+41
9.191114e+41
9.186699e+41
9.077056e+41
9.157672e+41
9.344767e+41
9.459957e+41
9.558957e+41
9.681538e+41
9.610910e+41
9.472289e+41
9.587092e+41
9.525100e+41
9.347861e+41
9.342326e+41
9.252907e+41
9.132591e+41
9.122986e+41
9.236450e+41
9.308985e+41
9.129290e+41
9.152058e+41
9.136391e+41
8.897630e+41
9.134789e+41
9.195062e+41
8.974246e+41
8.989598e+41
9.141081e+41
9.440961e+41
9.307156e+41
9.255025e+41
9.661910e+41
9.596600e+41
9.591848e+41
9.620397e+41
9.174833e+41
8.951361e+41
8.886749e+41
8.894902e+41
8.850390e+41
8.848867e+41
9.121851e+41
9.186380e+41
9.221567e+41
9.400231e+41
9.503475e+41
9.526756e+41
9.541842e+41
9.555804e+41
9.544771e+41
9.597580e+41
9.577027e+41
9.477436e+41
9.469358e+41
9.472055e+41
9.395968e+41
9.046014e+41
8.761200e+41
8.755808e+41
8.732120e+41
8.966497e+41
9.266428e+41
9.324819e+41
9.338160e+41
9.495849e+41
1.008398e+42
1.056696e+42
1.056854e+42
1.053133e+42
1.052887e+42
1.050815e+42
1.044406e+42
1.048313e+42
1.036466e+42
1.023963e+42
1.031535e+42
1.044783e+42
1.052053e+42
1.019006e+42
1.012400e+42
9.986659e+41
9.576073e+41
9.817398e+41
9.808297e+41
9.671122e+41
9.653467e+41
9.556084e+41
9.698514e+41
9.503496e+41
9.774655e+41
1.032075e+42
1.021080e+42
1.032154e+42
1.033080e+42
1.032575e+42
1.048328e+42
1.039957e+42
1.032629e+42
1.005362e+42
1.006152e+42
1.033062e+42
1.032639e+42
1.032813e+42
1.025918e+42
1.009596e+42
1.001004e+42
9.992107e+41
9.994542e+41
9.986200e+41
1.000054e+42
1.001812e+42
9.971660e+41
1.000691e+42
1.012007e+42
1.016874e+42
1.018827e+42
1.019890e+42
1.007942e+42
9.982769e+41
1.019002e+42
1.031511e+42
1.029343e+42
1.030544e+42
1.008800e+42
9.851262e+41
9.780225e+41
9.775609e+41
9.645931e+41
9.350046e+41
9.528326e+41
9.738932e+41
9.393364e+41
9.313842e+41
9.316681e+41
9.179247e+41
9.179695e+41
9.158509e+41
9.330641e+41
9.319630e+41
9.280603e+41
9.323863e+41
9.050538e+41
9.321897e+41
9.703261e+41
9.521623e+41
9.384586e+41
9.414860e+41
9.787038e+41
1.009878e+42
1.010470e+42
1.012038e+42
1.001113e+42
1.026139e+42
1.093588e+42
1.139364e+42
1.161460e+42
1.188208e+42
1.227876e+42
1.246473e+42
1.241000e+42
1.213991e+42
1.183902e+42
1.178482e+42
1.176844e+42
1.167376e+42
1.123152e+42
1.082115e+42
1.078000e+42
1.077679e+42
1.082340e+42
1.080073e+42
1.072284e+42
1.073543e+42
1.081078e+42
1.084913e+42
1.078582e+42
1.065596e+42
1.053530e+42
1.054211e+42
1.059067e+42
1.058267e+42
1.058185e+42
1.033308e+42
1.013501e+42
1.022610e+42
1.023599e+42
1.023443e+42
1.009212e+42
1.022746e+42
1.015855e+42
9.600684e+41
9.655621e+41
9.595562e+41
9.549115e+41
9.453614e+41
9.594610e+41
1.020148e+42
1.020100e+42
1.027054e+42
1.031301e+42
1.004183e+42
1.026933e+42
1.055928e+42
1.053307e+42
1.054681e+42
1.052450e+42
1.075979e+42
1.093243e+42
1.089761e+42
1.097778e+42
1.084761e+42
1.100287e+42
1.129465e+42
1.134070e+42
1.142666e+42
1.179235e+42
1.233527e+42
1.255228e+42
1.249350e+42
1.227455e+42
1.213341e+42
1.231677e+42
1.261038e+42
1.284411e+42
1.305881e+42
1.326432e+42
1.331618e+42
1.327613e+42
1.328433e+42
1.306699e+42
1.272893e+42
1.268579e+42
1.268637e+42
1.265451e+42
1.271592e+42
1.296312e+42
1.327993e+42
1.320776e+42
1.315427e+42
1.315189e+42
1.309242e+42
1.326328e+42
1.304015e+42
1.267156e+42
1.267073e+42
1.291130e+42
1.318664e+42
1.283384e+42
1.266934e+42
1.307816e+42
1.306700e+42
1.312813e+42
1.297688e+42
1.229670e+42
1.189217e+42
1.166503e+42
1.145187e+42
1.109760e+42
1.095487e+42
1.120018e+42
1.128684e+42
1.131167e+42
1.151637e+42
1.170671e+42
1.170869e+42
1.160121e+42
1.157412e+42
1.158725e+42
1.159941e+42
1.171235e+42
1.180464e+42
1.182465e+42
1.181638e+42
1.198326e+42
1.243501e+42
1.281262e+42
1.292051e+42
1.289419e+42
1.284781e+42
1.282559e+42
1.289226e+42
1.314389e+42
1.357977e+42
1.396769e+42
1.408429e+42
1.413845e+42
1.415184e+42
1.416207e+42
1.402434e+42
1.373861e+42
1.375126e+42
1.373873e+42
1.368249e+42
1.368078e+42
1.366736e+42
1.343412e+42
1.293532e+42
1.283398e+42
1.279619e+42
1.263787e+42
1.287353e+42
1.273189e+42
1.244191e+42
1.243442e+42
1.245200e+42
1.253879e+42
1.222400e+42
1.223257e+42
1.264461e+42
1.257741e+42
1.263627e+42
1.249656e+42
1.222743e+42
1.229500e+42
1.217875e+42
1.187453e+42
1.134294e+42
1.122657e+42
1.157114e+42
1.166485e+42
1.163415e+42
1.144481e+42
1.114409e+42
1.089843e+42
1.076414e+42
1.072420e+42
1.066540e+42
1.070859e+42
1.081113e+42
1.081259e+42
1.084388e+42
1.091338e+42
1.094658e+42
1.095999e+42
1.091961e+42
1.067058e+42
1.036391e+42
1.045033e+42
1.063994e+42
1.068597e+42
1.068693e+42
1.052103e+42
1.038503e+42
1.033767e+42
1.033203e+42
1.017994e+42
9.851433e+41
9.947460e+41
9.976889e+41
9.591406e+41
9.532797e+41
9.481980e+41
9.368398e+41
9.370898e+41
9.362155e+41
9.497836e+41
9.432052e+41
9.546224e+41
9.712400e+41
9.472433e+41
9.864613e+41
1.038968e+42
1.024090e+42
1.005142e+42
1.001995e+42
1.031019e+42
1.057767e+42
1.057569e+42
1.059965e+42
1.044238e+42
1.053429e+42
1.118873e+42
1.171000e+42
1.169429e+42
1.137417e+42
1.131617e+42
1.143407e+42
1.142851e+42
1.143787e+42
1.140067e+42
1.132269e+42
1.106898e+42
1.070156e+42
1.048577e+42
1.036437e+42
1.029035e+42
1.027607e+42
1.029246e+42
1.030765e+42
1.030770e+42
1.032926e+42
1.039694e+42
1.049562e+42
1.052050e+42
1.050155e+42
1.034103e+42
1.026302e+42
1.034418e+42
1.037515e+42
1.037044e+42
1.013394e+42
1.000766e+42
1.009469e+42
1.011431e+42
1.007130e+42
9.977703e+41
1.009584e+42
1.002150e+42
9.628592e+41
9.651287e+41
9.657467e+41
9.622527e+41
9.596241e+41
9.718048e+41
1.026609e+42
1.031035e+42
1.034139e+42
1.043290e+42
1.008675e+42
1.031107e+42
1.062456e+42
1.057642e+42
1.061274e+42
1.060566e+42
1.085836e+42
1.102314e+42
1.100215e+42
1.100366e+42
1.089309e+42
1.117676e+42
1.153156e+42
1.158338e+42
1.161409e+42
1.188163e+42
1.241106e+42
1.269615e+42
1.265416e+42
1.246645e+42
1.228929e+42
1.244692e+42
1.281710e+42
1.310206e+42
1.328264e+42
1.344778e+42
1.348733e+42
1.340638e+42
1.342139e+42
1.331622e+42
1.311437e+42
1.311423e+42
1.313191e+42
1.313192e+42
1.318018e+42
1.343958e+42
1.377383e+42
1.373809e+42
1.374172e+42
1.361208e+42
1.342566e+42
1.360593e+42
1.326702e+42
1.276427e+42
1.275361e+42
1.300115e+42
1.328094e+42
1.297845e+42
1.280672e+42
1.319920e+42
1.322537e+42
1.327834e+42
1.320189e+42
1.252342e+42
1.201443e+42
1.176134e+42
1.162314e+42
1.133259e+42
1.115166e+42
1.142725e+42
1.155599e+42
1.155501e+42
1.154618e+42
1.154466e+42
1.160442e+42
1.152274e+42
1.142890e+42
1.149684e+42
1.152797e+42
1.150412e+42
1.163212e+42
1.186761e+42
1.200997e+42
1.201801e+42
1.210020e+42
1.238999e+42
1.269496e+42
1.277911e+42
1.274596e+42
1.266085e+42
1.270578e+42
1.320178e+42
1.372278e+42
1.393398e+42
1.397822e+42
1.411814e+42
1.419949e+42
1.419923e+42
1.409161e+42
1.385898e+42
1.393493e+42
1.393521e+42
1.386515e+42
1.385807e+42
1.388791e+42
1.371589e+42
1.319846e+42
1.307907e+42
1.302528e+42
1.285329e+42
1.300987e+42
1.281983e+42
1.251414e+42
1.251035e+42
1.248825e+42
1.255358e+42
1.219185e+42
1.213319e+42
1.261855e+42
1.263077e+42
1.271524e+42
1.246982e+42
1.217520e+42
1.228960e+42
1.220843e+42
1.202308e+42
1.150876e+42
1.130186e+42
1.148980e+42
1.150538e+42
1.152638e+42
1.136399e+42
1.098925e+42
1.068696e+42
1.053149e+42
1.052156e+42
1.049610e+42
1.050829e+42
1.064543e+42
1.066289e+42
1.069696e+42
1.080014e+42
1.083319e+42
1.083628e+42
1.079741e+42
1.053748e+42
1.019408e+42
1.028823e+42
1.049025e+42
1.053858e+42
1.053090e+42
1.036207e+42
1.024390e+42
1.019830e+42
1.018200e+42
1.003271e+42
9.719574e+41
9.829121e+41
9.872768e+41
9.485720e+41
9.421782e+41
9.372628e+41
9.253146e+41
9.254559e+41
9.247401e+41
9.370900e+41
9.297702e+41
9.401252e+41
9.543834e+41
9.263059e+41
9.588538e+41
1.015338e+42
1.021707e+42
1.021406e+42
1.011223e+42
1.032471e+42
1.066814e+42
1.061389e+42
1.063789e+42
1.065450e+42
1.059720e+42
1.061499e+42
1.048073e+42
1.033675e+42
1.014493e+42
9.912116e+41
9.958101e+41
1.012329e+42
1.015527e+42
1.016072e+42
1.006191e+42
9.573772e+41
9.069900e+41
8.858936e+41
8.784534e+41
8.687534e+41
8.593387e+41
8.673139e+41
8.767599e+41
8.764485e+41
8.850291e+41
8.976308e+41
9.008443e+41
9.011685e+41
8.957992e+41
8.782849e+41
8.795892e+41
8.938918e+41
8.948025e+41
8.943703e+41
8.794613e+41
8.692778e+41
8.728459e+41
8.729841e+41
8.702878e+41
8.648071e+41
8.779363e+41
8.612767e+41
8.129531e+41
8.079955e+41
7.995362e+41
7.940812e+41
7.858323e+41
7.756039e+41
8.119502e+41
8.172198e+41
8.147791e+41
8.203214e+41
8.005618e+41
8.224971e+41
8.459825e+41
8.399277e+41
8.406183e+41
8.422043e+41
8.655921e+41
8.743900e+41
8.687569e+41
8.684084e+41
8.537934e+41
8.707561e+41
9.044589e+41
9.122461e+41
9.165504e+41
9.378109e+41
9.859892e+41
1.020423e+42
1.018453e+42
1.000705e+42
9.803214e+41
9.992989e+41
1.041681e+42
1.067429e+42
1.082111e+42
1.100872e+42
1.107294e+42
1.097815e+42
1.100306e+42
1.088297e+42
1.067663e+42
1.067765e+42
1.068306e+42
1.068901e+42
1.074970e+42
1.100563e+42
1.131074e+42
1.129118e+42
1.129368e+42
1.117559e+42
1.099881e+42
1.118242e+42
1.087100e+42
1.035164e+42
1.032509e+42
1.057648e+42
1.088162e+42
1.057719e+42
1.041176e+42
1.084206e+42
1.089129e+42
1.087317e+42
1.078750e+42
1.077542e+42
1.145020e+42
1.182149e+42
1.181223e+42
1.183961e+42
1.151355e+42
1.132576e+42
1.155320e+42
1.172226e+42
1.172298e+42
1.170339e+42
1.168996e+42
1.171374e+42
1.169319e+42
1.163682e+42
1.172194e+42
1.165247e+42
1.168182e+42
1.210149e+42
1.216408e+42
1.204036e+42
1.214776e+42
1.259974e+42
1.300649e+42
1.305103e+42
1.300055e+42
1.285251e+42
1.303834e+42
1.346683e+42
1.383500e+42
1.407410e+42
1.424582e+42
1.439494e+42
1.443946e+42
1.442077e+42
1.428961e+42
1.420265e+42
1.430036e+42
1.443118e+42
1.447293e+42
1.447879e+42
1.449568e+42
1.444473e+42
1.412539e+42
1.396200e+42
1.396276e+42
1.385927e+42
1.403809e+42
1.389727e+42
1.362870e+42
1.362429e+42
1.366869e+42
1.372255e+42
1.344035e+42
1.348394e+42
1.385107e+42
1.387903e+42
1.392531e+42
1.374947e+42
1.343793e+42
1.344481e+42
1.335616e+42
1.321255e+42
1.277320e+42
1.248117e+42
1.268895e+42
1.270790e+42
1.275028e+42
1.257384e+42
1.214349e+42
1.186768e+42
1.174998e+42
1.174394e+42
1.168768e+42
1.171206e+42
1.182815e+42
1.183766e+42
1.186810e+42
1.195889e+42
1.200583e+42
1.201221e+42
1.195707e+42
1.170003e+42
1.138031e+42
1.145222e+42
1.165898e+42
1.171290e+42
1.170949e+42
1.153363e+42
1.140473e+42
1.136345e+42
1.135478e+42
1.120702e+42
1.087427e+42
1.099323e+42
1.101792e+42
1.059276e+42
1.048637e+42
1.049058e+42
1.049486e+42
1.025418e+42
9.570023e+41
9.304591e+41
9.307930e+41
9.351678e+41
9.550206e+41
9.480550e+41
9.498854e+41
9.520804e+41
9.539268e+41
9.986525e+41
1.014610e+42
1.017856e+42
1.061552e+42
1.083839e+42
1.075245e+42
1.083043e+42
1.072782e+42
1.031443e+42
1.011020e+42
1.004769e+42
9.908894e+41
9.471714e+41
9.295924e+41
9.668957e+41
9.776419e+41
9.797413e+41
9.718832e+41
9.295645e+41
8.924397e+41
8.661991e+41
8.595249e+41
8.584244e+41
8.544108e+41
8.723770e+41
8.790191e+41
8.805662e+41
8.859480e+41
8.809327e+41
8.795571e+41
8.824158e+41
8.814336e+41
8.719055e+41
8.746125e+41
8.824730e+41
8.825938e+41
8.797385e+41
8.620658e+41
8.526623e+41
8.558597e+41
8.569921e+41
8.503957e+41
8.436430e+41
8.534081e+41
8.392594e+41
8.031055e+41
8.009152e+41
7.972737e+41
7.936624e+41
7.880969e+41
7.851920e+41
8.248932e+41
8.300980e+41
8.266397e+41
8.326207e+41
8.098985e+41
8.275167e+41
8.468920e+41
8.393378e+41
8.397905e+41
8.412432e+41
8.613838e+41
8.695926e+41
8.650904e+41
8.645113e+41
8.506426e+41
8.703719e+41
9.070009e+41
9.151914e+41
9.180543e+41
9.407056e+41
9.923258e+41
1.025592e+42
1.023335e+42
1.007059e+42
9.868059e+41
1.003371e+42
1.043593e+42
1.070820e+42
1.086599e+42
1.104484e+42
1.110327e+42
1.100430e+42
1.102534e+42
1.089933e+42
1.069577e+42
1.069695e+42
1.069427e+42
1.068779e+42
1.070306e+42
1.084897e+42
1.103516e+42
1.098575e+42
1.098552e+42
1.083901e+42
1.065899e+42
1.083696e+42
1.066670e+42
1.049852e+42
1.053555e+42
1.042436e+42
1.066367e+42
1.063209e+42
1.025145e+42
1.023847e+42
1.025940e+42
1.019381e+42
1.016117e+42
1.054327e+42
1.135099e+42
1.168730e+42
1.168864e+42
1.180496e+42
1.157906e+42
1.126614e+42
1.146937e+42
1.164941e+42
1.156076e+42
1.155373e+42
1.161169e+42
1.170486e+42
1.155909e+42
1.145935e+42
1.155647e+42
1.137664e+42
1.147714e+42
1.185024e+42
1.192472e+42
1.190026e+42
1.199120e+42
1.240829e+42
1.286723e+42
1.291894e+42
1.286382e+42
1.278231e+42
1.300462e+42
1.351715e+42
1.385714e+42
1.405713e+42
1.425894e+42
1.444777e+42
1.449334e+42
1.448588e+42
1.438129e+42
1.427503e+42
1.437751e+42
1.447038e+42
1.450791e+42
1.452800e+42
1.455248e+42
1.441028e+42
1.400413e+42
1.387652e+42
1.386148e+42
1.383214e+42
1.419505e+42
1.416409e+42
1.392132e+42
1.394824e+42
1.394640e+42
1.405907e+42
1.379881e+42
1.376266e+42
1.409184e+42
1.408348e+42
1.414815e+42
1.391955e+42
1.376223e+42
1.381922e+42
1.372237e+42
1.366839e+42
1.317901e+42
1.294987e+42
1.316106e+42
1.317943e+42
1.320412e+42
1.309228e+42
1.278670e+42
1.251756e+42
1.232572e+42
1.214411e+42
1.209424e+42
1.212155e+42
1.212806e+42
1.218607e+42
1.219236e+42
1.235734e+42
1.240859e+42
1.242284e+42
1.242813e+42
1.228253e+42
1.206038e+42
1.234456e+42
1.288100e+42
1.298875e+42
1.295040e+42
1.277573e+42
1.269860e+42
1.272133e+42
1.264939e+42
1.231364e+42
1.194517e+42
1.206765e+42
1.214297e+42
1.193592e+42
1.194252e+42
1.192625e+42
1.241625e+42
1.293483e+42
1.231063e+42
1.200310e+42
1.209688e+42
1.196273e+42
1.197202e+42
1.186725e+42
1.158267e+42
1.138392e+42
1.136006e+42
1.136942e+42
1.131162e+42
1.121363e+42
1.123631e+42
1.130543e+42
1.125856e+42
1.126220e+42
1.114569e+42
1.073905e+42
1.060335e+42
1.056681e+42
1.048071e+42
1.004887e+42
9.784973e+41
1.051325e+42
1.083176e+42
1.083406e+42
1.066281e+42
1.014841e+42
9.829611e+41
9.639825e+41
9.602068e+41
9.507218e+41
9.472722e+41
9.599591e+41
9.622430e+41
9.650193e+41
9.703960e+41
9.622008e+41
9.571443e+41
9.553881e+41
9.628148e+41
9.631574e+41
9.669756e+41
9.851407e+41
9.876283e+41
9.803078e+41
9.440157e+41
9.308434e+41
9.325206e+41
9.294693e+41
9.283300e+41
9.299270e+41
9.622123e+41
9.470561e+41
9.161290e+41
9.260089e+41
9.199057e+41
9.240992e+41
9.009889e+41
8.900318e+41
9.372630e+41
9.364919e+41
9.334724e+41
9.283656e+41
9.071698e+41
9.212515e+41
9.240621e+41
9.111285e+41
9.014412e+41
9.045027e+41
9.279725e+41
9.409983e+41
9.350769e+41
9.366018e+41
9.338023e+41
9.521091e+41
1.022973e+42
1.050984e+42
1.051794e+42
1.052402e+42
1.069340e+42
1.113559e+42
1.130314e+42
1.095023e+42
1.041072e+42
1.049978e+42
1.101015e+42
1.124912e+42
1.124514e+42
1.122511e+42
1.132871e+42
1.135098e+42
1.140136e+42
1.140844e+42
1.124013e+42
1.135485e+42
1.145796e+42
1.146573e+42
1.097525e+42
1.011227e+42
9.980023e+41
9.959190e+41
9.883073e+41
9.897226e+41
9.919271e+41
1.013285e+42
1.012724e+42
1.029589e+42
1.069276e+42
1.070292e+42
1.087959e+42
1.115356e+42
1.113431e+42
1.105555e+42
1.103153e+42
1.105375e+42
1.113313e+42
1.142786e+42
1.156020e+42
1.160868e+42
1.159336e+42
1.158443e+42
1.137559e+42
1.059815e+42
1.035300e+42
1.055616e+42
1.057335e+42
1.057483e+42
1.056916e+42
1.075910e+42
1.073234e+42
1.064136e+42
1.094905e+42
1.091639e+42
1.098843e+42
1.121785e+42
1.113726e+42
1.112563e+42
1.129205e+42
1.183215e+42
1.214768e+42
1.214114e+42
1.209758e+42
1.192059e+42
1.220003e+42
1.270476e+42
1.292182e+42
1.291855e+42
1.302756e+42
1.341588e+42
1.368284e+42
1.354250e+42
1.323409e+42
1.317460e+42
1.330249e+42
1.326551e+42
1.326264e+42
1.324759e+42
1.339620e+42
1.334246e+42
1.287486e+42
1.275544e+42
1.274839e+42
1.291609e+42
1.328303e+42
1.322969e+42
1.316594e+42
1.315699e+42
1.326873e+42
1.346651e+42
1.323589e+42
1.339149e+42
1.379705e+42
1.377458e+42
1.382365e+42
1.355846e+42
1.300648e+42
1.277760e+42
1.271760e+42
1.274306e+42
1.256381e+42
1.221185e+42
1.234768e+42
1.244453e+42
1.251461e+42
1.266313e+42
1.228117e+42
1.204356e+42
1.203694e+42
1.203885e+42
1.206424e+42
1.205027e+42
1.204751e+42
1.192293e+42
1.194966e+42
1.198624e+42
1.188982e+42
1.188588e+42
1.189324e+42
1.184845e+42
1.178694e+42
1.211554e+42
1.263284e+42
1.281058e+42
1.277616e+42
1.261686e+42
1.300268e+42
1.358892e+42
1.362531e+42
1.366750e+42
1.348816e+42
1.321495e+42
1.320911e+42
1.319010e+42
1.317811e+42
1.326464e+42
1.348986e+42
1.360595e+42
1.352813e+42
1.345352e+42
1.344425e+42
1.344952e+42
1.345044e+42
1.344118e+42
1.334440e+42
1.314002e+42
1.305987e+42
1.306509e+42
1.308911e+42
1.288463e+42
1.279923e+42
1.298146e+42
1.269161e+42
1.263480e+42
1.257472e+42
1.229534e+42
1.228907e+42
1.227171e+42
1.214122e+42
1.159975e+42
1.140129e+42
1.200626e+42
1.232986e+42
1.231586e+42
1.206053e+42
1.154759e+42
1.134644e+42
1.130437e+42
1.135595e+42
1.110659e+42
1.084562e+42
1.101045e+42
1.102545e+42
1.109864e+42
1.113199e+42
1.107540e+42
1.107951e+42
1.105910e+42
1.099951e+42
1.092362e+42
1.104083e+42
1.126459e+42
1.133998e+42
1.111971e+42
1.073821e+42
1.063107e+42
1.063308e+42
1.063858e+42
1.051786e+42
1.043573e+42
1.070641e+42
1.047510e+42
1.010172e+42
1.016683e+42
1.012083e+42
1.015894e+42
1.000002e+42
9.916694e+41
1.033917e+42
1.045953e+42
1.044782e+42
1.039442e+42
1.008642e+42
1.013423e+42
1.013113e+42
9.782838e+41
9.664629e+41
9.692232e+41
9.906752e+41
1.003571e+42
9.899874e+41
9.954880e+41
9.872673e+41
1.011442e+42
1.081421e+42
1.107574e+42
1.110655e+42
1.112564e+42
1.131972e+42
1.173078e+42
1.187413e+42
1.153334e+42
1.099735e+42
1.099475e+42
1.147834e+42
1.168152e+42
1.129194e+42
1.055748e+42
1.020662e+42
1.015394e+42
1.023540e+42
1.044910e+42
1.045567e+42
1.048271e+42
1.046560e+42
1.050051e+42
1.048647e+42
1.020112e+42
1.004970e+42
1.009827e+42
1.014369e+42
1.017064e+42
1.020350e+42
1.022183e+42
1.022349e+42
1.030240e+42
1.042263e+42
1.043249e+42
1.042892e+42
1.054826e+42
1.052382e+42
1.032419e+42
1.033638e+42
1.042971e+42
1.055828e+42
1.068280e+42
1.074604e+42
1.090376e+42
1.094113e+42
1.093948e+42
1.072509e+42
1.010109e+42
9.967004e+41
1.014868e+42
1.012057e+42
1.011932e+42
1.016341e+42
1.037000e+42
1.028822e+42
1.016182e+42
1.037418e+42
1.028296e+42
1.030010e+42
1.047551e+42
1.042343e+42
1.043501e+42
1.054166e+42
1.102435e+42
1.142744e+42
1.147109e+42
1.136349e+42
1.107957e+42
1.137962e+42
1.195159e+42
1.212862e+42
1.214727e+42
1.229134e+42
1.267576e+42
1.283687e+42
1.267879e+42
1.245933e+42
1.240519e+42
1.246990e+42
1.245638e+42
1.248526e+42
1.251401e+42
1.264087e+42
1.252954e+42
1.210480e+42
1.198288e+42
1.198266e+42
1.216013e+42
1.250003e+42
1.246605e+42
1.239890e+42
1.239738e+42
1.251884e+42
1.270786e+42
1.247572e+42
1.258170e+42
1.294819e+42
1.291660e+42
1.294928e+42
1.265146e+42
1.205208e+42
1.186437e+42
1.182377e+42
1.184104e+42
1.166277e+42
1.134192e+42
1.154652e+42
1.166695e+42
1.172833e+42
1.182486e+42
1.138799e+42
1.115452e+42
1.114726e+42
1.116970e+42
1.123283e+42
1.122317e+42
1.121342e+42
1.107324e+42
1.106778e+42
1.118937e+42
1.124559e+42
1.110271e+42
1.078264e+42
1.065698e+42
1.067553e+42
1.091637e+42
1.141718e+42
1.160549e+42
1.158477e+42
1.160823e+42
1.202376e+42
1.275174e+42
1.308709e+42
1.313465e+42
1.309693e+42
1.297780e+42
1.292760e+42
1.293649e+42
1.291292e+42
1.290462e+42
1.311286e+42
1.338198e+42
1.338646e+42
1.323079e+42
1.315915e+42
1.316033e+42
1.316057e+42
1.317105e+42
1.301183e+42
1.283184e+42
1.281155e+42
1.281032e+42
1.276334e+42
1.255428e+42
1.251886e+42
1.270417e+42
1.258394e+42
1.250710e+42
1.245757e+42
1.220803e+42
1.210904e+42
1.207760e+42
1.200589e+42
1.151843e+42
1.124450e+42
1.188740e+42
1.223036e+42
1.222186e+42
1.192660e+42
1.135634e+42
1.121587e+42
1.118735e+42
1.128190e+42
1.107184e+42
1.092322e+42
1.112804e+42
1.109283e+42
1.121639e+42
1.128717e+42
1.121541e+42
1.118919e+42
1.114018e+42
1.110367e+42
1.106627e+42
1.117580e+42
1.136600e+42
1.143429e+42
1.121999e+42
1.086889e+42
1.076407e+42
1.076513e+42
1.076420e+42
1.063423e+42
1.054818e+42
1.080278e+42
1.060484e+42
1.026586e+42
1.034280e+42
1.031477e+42
1.036505e+42
1.024156e+42
1.017600e+42
1.060414e+42
1.070821e+42
1.068809e+42
1.062768e+42
1.026548e+42
1.027796e+42
1.027690e+42
9.992941e+41
9.943579e+41
9.944603e+41
1.014221e+42
1.026455e+42
1.010117e+42
1.015926e+42
1.008666e+42
1.027712e+42
1.089354e+42
1.103586e+42
1.100368e+42
1.101640e+42
1.122002e+42
1.168950e+42
1.186785e+42
1.157557e+42
1.102003e+42
1.084113e+42
1.098841e+42
1.095052e+42
1.071953e+42
1.011713e+42
9.659610e+41
9.689816e+41
9.714174e+41
9.724500e+41
9.731479e+41
9.722139e+41
9.704587e+41
9.598409e+41
9.292180e+41
8.988160e+41
8.911584e+41
8.905217e+41
9.027999e+41
9.249135e+41
9.294373e+41
9.266432e+41
9.257576e+41
9.275095e+41
9.308077e+41
9.347906e+41
9.337667e+41
9.480095e+41
9.566040e+41
9.357957e+41
9.363555e+41
9.505980e+41
9.596381e+41
9.700306e+41
9.873213e+41
1.005291e+42
1.004360e+42
1.004376e+42
9.822067e+41
9.127632e+41
8.831840e+41
8.905609e+41
8.849025e+41
8.858772e+41
8.903869e+41
9.144630e+41
9.019620e+41
8.877382e+41
9.168142e+41
9.036316e+41
9.119767e+41
9.312079e+41
9.236479e+41
9.243213e+41
9.390096e+41
9.962118e+41
1.032350e+42
1.034767e+42
1.023993e+42
1.002551e+42
1.033181e+42
1.083441e+42
1.100677e+42
1.104957e+42
1.120439e+42
1.155787e+42
1.170748e+42
1.157529e+42
1.137100e+42
1.130135e+42
1.136188e+42
1.133934e+42
1.137211e+42
1.138467e+42
1.150299e+42
1.138068e+42
1.093824e+42
1.083708e+42
1.083377e+42
1.101899e+42
1.136096e+42
1.133570e+42
1.127410e+42
1.127450e+42
1.140368e+42
1.159962e+42
1.138138e+42
1.147757e+42
1.183843e+42
1.179700e+42
1.182608e+42
1.156114e+42
1.106121e+42
1.099069e+42
1.098806e+42
1.101744e+42
1.081988e+42
1.043933e+42
1.062138e+42
1.074489e+42
1.080041e+42
1.102989e+42
1.092787e+42
1.094916e+42
1.078435e+42
1.062667e+42
1.078886e+42
1.070862e+42
1.077110e+42
1.087842e+42
1.085945e+42
1.086584e+42
1.093207e+42
1.141884e+42
1.187306e+42
1.185950e+42
1.178382e+42
1.179877e+42
1.182476e+42
1.180722e+42
1.187124e+42
1.195377e+42
1.209132e+42
1.237894e+42
1.274409e+42
1.301644e+42
1.308988e+42
1.294865e+42
1.282780e+42
1.283169e+42
1.285674e+42
1.292824e+42
1.304341e+42
1.316834e+42
1.318527e+42
1.305916e+42
1.303806e+42
1.306750e+42
1.306917e+42
1.315289e+42
1.312639e+42
1.305554e+42
1.304132e+42
1.303365e+42
1.297230e+42
1.272794e+42
1.268790e+42
1.280030e+42
1.257373e+42
1.250246e+42
1.239762e+42
1.208650e+42
1.202756e+42
1.201812e+42
1.189682e+42
1.131370e+42
1.105586e+42
1.178677e+42
1.216152e+42
1.213969e+42
1.185502e+42
1.135145e+42
1.122620e+42
1.118546e+42
1.129212e+42
1.109716e+42
1.096270e+42
1.114518e+42
1.110831e+42
1.121774e+42
1.128160e+42
1.120469e+42
1.117091e+42
1.112000e+42
1.107826e+42
1.103953e+42
1.114121e+42
1.134297e+42
1.141831e+42
1.120323e+42
1.084598e+42
1.074532e+42
1.074791e+42
1.074736e+42
1.061054e+42
1.053329e+42
1.079971e+42
1.059782e+42
1.026842e+42
1.033618e+42
1.030753e+42
1.037779e+42
1.027553e+42
1.010953e+42
1.032065e+42
1.032530e+42
1.032066e+42
1.025105e+42
9.932458e+41
1.006036e+42
1.009769e+42
9.816794e+41
9.758360e+41
9.838141e+41
1.019320e+42
1.030076e+42
1.016344e+42
1.032227e+42
1.023838e+42
1.034346e+42
1.061012e+42
1.060395e+42
1.081769e+42
1.047769e+42
1.002333e+42
1.058836e+42
1.120382e+42
1.128429e+42
1.113741e+42
1.093632e+42
1.084531e+42
1.078105e+42
1.063328e+42
1.045064e+42
1.009777e+42
9.795904e+41
9.793196e+41
9.801101e+41
9.801312e+41
9.852894e+41
9.727600e+41
9.515981e+41
9.331287e+41
9.296665e+41
9.222166e+41
9.176761e+41
9.405702e+41
9.540659e+41
9.541386e+41
9.452736e+41
9.416919e+41
9.438612e+41
9.530463e+41
9.566676e+41
9.576669e+41
9.753488e+41
9.790457e+41
9.648304e+41
9.575701e+41
9.599290e+41
9.648907e+41
9.730966e+41
9.881487e+41
1.013243e+42
1.021392e+42
1.020683e+42
1.006041e+42
9.300465e+41
9.028546e+41
9.177022e+41
9.099973e+41
9.100177e+41
9.131698e+41
9.435228e+41
9.303354e+41
9.195897e+41
9.510226e+41
9.400105e+41
9.497465e+41
9.710144e+41
9.648877e+41
9.650517e+41
9.799483e+41
1.040323e+42
1.078872e+42
1.080436e+42
1.071136e+42
1.048593e+42
1.080740e+42
1.129002e+42
1.144645e+42
1.149371e+42
1.166723e+42
1.200844e+42
1.214304e+42
1.199992e+42
1.177362e+42
1.170976e+42
1.175126e+42
1.173895e+42
