1.325528
1.078452
0.642878
0.270214
-0.195378
-0.646195
-0.992603
-1.208283
-1.333333
-1.333333
-1.272411
-1.084456
-0.669633
-0.284818
0.111849
0.558037
0.942572
1.150667
1.319214
1.323957
1.226701
1.031631
0.632777
0.260885
-0.158329
-0.596542
-0.956826
-1.188968
-1.333333
-1.333333
-1.274416
-1.101439
-0.672984
-0.280222
0.120652
0.561645
0.968495
1.22508
1.333333
1.333333
1.303783
1.09922
0.671392
0.325954
-0.082528
-0.547417
-0.884356
-1.097684
-1.33292
-1.292885
-1.195933
-1.022751
-0.614006
-0.282029
0.098548
0.565137
0.909873
1.08438
1.327284
1.333333
1.260622
1.106816
0.675593
0.29734
-0.108953
-0.58729
-0.958364
-1.156491
-1.333333
-1.333333
-1.249616
-1.05259
-0.638105
-0.285185
0.084313
0.487271
0.850839
1.091809
1.331148
1.324307
1.246487
1.109918
0.704872
0.32155
-0.101404
-0.558445
-0.952855
-1.195451
-1.333333
-1.333333
-1.27701
-1.082418
-0.646709
-0.275692
0.124463
0.551699
0.899448
1.129305
1.333333
1.333333
1.31304
1.148234
0.721512
0.345413
-0.058468
-0.558179
-0.918655
-1.16932
-1.333333
-1.333333
-1.333333
-1.15758
-0.704737
-0.307595
0.062744
0.487435
0.863712
1.116132
1.333333
1.333333
1.26917
1.109941
0.719721
0.361154
-0.025413
-0.475955
-0.850895
-1.095486
-1.333333
-1.333333
-1.307443
-1.116284
-0.690494
-0.326703
0.077315
0.574509
0.897477
1.089053
1.333333
1.333333
1.249136
1.104007
0.678391
0.310364
-0.049504
-0.49087
-0.873411
-1.150101
-1.333333
-1.333333
-1.333333
-1.14656
-0.729327
-0.357582
0.04574
0.538377
0.882832
1.143258
1.333333
1.333333
1.333333
1.190579
0.776757
0.418736
0.024194
-0.455071
-0.812961
-1.12606
-1.333333
-1.333333
-1.333333
-1.235931
-0.829298
-0.431661
-0.083104
0.345835
0.727303
0.998792
1.281548
1.333333
1.270972
1.077075
0.65325
0.308695
-0.044305
-0.53866
-0.871583
-1.116079
-1.333333
-1.333333
-1.333333
-1.186588
-0.78927
-0.395906
0.01643
0.482466
0.868064
1.165487
1.333333
1.333333
1.327981
1.16836
0.751891
0.399817
0.032327
-0.442812
-0.831631
-1.075954
-1.332677
-1.333333
-1.284491
-1.145238
-0.785477
-0.451458
-0.075769
0.37699
0.742857
1.003728
1.28117
1.320355
1.271487
1.145154
0.752498
0.361332
-0.011925
-0.457644
-0.833786
-1.109539
-1.333333
-1.333333
-1.285614
-1.139156
-0.750508
-0.38981
-0.007292
0.470048
0.813315
1.088538
1.333333
1.333333
1.333333
1.218823
0.851275
0.436567
0.021367
-0.426802
-0.81361
-1.110477
-1.333333
-1.333333
-1.333333
-1.206739
-0.847847
-0.493239
-0.165199
0.288774
0.732229
1.022871
1.276897
1.314412
1.257105
1.132555
0.822284
0.488066
0.076778
-0.392281
-0.766016
-1.047912
-1.302989
-1.333333
-1.331194
-1.253322
-0.903525
-0.527685
-0.136211
0.311654
0.707121
1.002245
1.258665
1.333333
1.310091
1.141928
0.823683
0.505851
0.111255
-0.368537
-0.751941
-1.097283
-1.333333
-1.333333
-1.333333
-1.24551
-0.929996
-0.548562
-0.169161
0.270496
0.67815
0.986599
1.229026
1.332893
1.333333
1.203775
0.833747
0.467072
0.101781
-0.329347
-0.696395
-0.987039
-1.252711
-1.333333
-1.277905
-1.150446
-0.835925
-0.447515
-0.129514
0.297545
0.701556
1.037909
1.274614
1.33261
1.306366
1.184171
0.877183
0.498979
0.122455
-0.339452
-0.764298
-1.076886
-1.326888
-1.333333
-1.333333
-1.248407
-0.927911
-0.529693
-0.170377
0.28126
0.673142
0.981488
1.224787
1.286325
1.257378
1.128406
0.847165
0.473445
0.138344
-0.292137
-0.736887
-1.056964
-1.254913
-1.333333
-1.333333
-1.201795
-0.935616
-0.55854
-0.15713
0.300354
0.65931
0.969573
1.227138
1.333333
1.333333
1.244657
0.982001
0.573339
0.128556
-0.316239
-0.693415
-0.99896
-1.199194
-1.294453
-1.315843
-1.195855
-0.945437
-0.577335
-0.243026
0.190038
0.629201
0.938371
1.136956
1.27348
1.268271
1.146272
0.948986
0.597892
0.232307
-0.194344
-0.581057
-0.914353
-1.119613
-1.239613
-1.247052
-1.127279
-0.905871
-0.553761
-0.210312
0.213884
0.624019
0.987701
1.19486
1.333333
1.333333
1.189407
0.913824
0.431638
0.04754
-0.353967
-0.702246
-0.998258
-1.190673
-1.333333
-1.333333
-1.256824
-1.007248
-0.610053
-0.307172
0.023145
0.423383
0.723047
0.922553
1.122722
1.168973
1.10965
0.917067
0.511253
0.133762
-0.249299
-0.643201
-0.971824
-1.194266
-1.333333
-1.333333
-1.273818
-1.074258
-0.625916
-0.230073
0.175614
0.575405
0.920694
1.144068
1.317298
1.310327
1.19208
0.966628
0.585697
0.288284
-0.062548
-0.482225
-0.866296
-1.099653
-1.282578
-1.300936
-1.202071
-1.066851
-0.682274
-0.305497
0.127602
0.562079
0.893286
1.088076
1.226626
1.189717
1.050774
0.835183
0.488166
0.143402
-0.261907
-0.661436
-0.959635
-1.184427
-1.333333
-1.333333
-1.261198
-1.136017
-0.778464
-0.45321
-0.067915
0.396895
0.818636
1.095519
1.286723
1.30908
1.266867
1.137555
0.806201
0.467475
0.055373
-0.417263
-0.804171
-1.077947
-1.308915
-1.333333
-1.231836
-1.025038
-0.628469
-0.315204
0.037464
0.409195
0.703608
0.939273
1.16109
1.162083
1.0843
0.93546
0.545118
0.180041
-0.196697
-0.596238
-0.941849
-1.15214
-1.306666
-1.258331
-1.195947
-1.102469
-0.808023
-0.492788
-0.078038
0.332937
1.333333
1.333333
1.333333
1.333333
1.333333
1.333333
0.657775
0.376476
0.011468
-0.418577
-0.725153
-0.973351
-1.251016
-1.333333
-1.333333
-1.240754
-0.865609
-0.49251
-0.070033
0.399589
0.735042
1.032244
1.258484
1.275732
1.164982
0.972466
0.611798
0.298331
-0.11075
-0.546097
-1.333333
-1.333333
-1.333333
-1.333333
-1.231899
-0.4714
1.333333
1.333333
1.333333
1.333333
1.333333
1.333333
1.333333
1.333333
1.239391
1.002393
0.604939
0.260745
-0.066367
-0.461844
-0.816504
-1.097354
-1.302758
-1.269928
-1.195828
-1.133197
-0.824761
-0.514938
-0.153633
0.28227
0.602093
0.821802
1.072498
1.150956
1.121927
0.96169
0.564369
0.213742
-0.166184
-0.636083
-0.856852
-0.989398
-1.135147
-1.189637
-1.219007
-1.116728
-0.831566
-0.552478
-0.217254
0.278104
0.661664
0.92929
1.137765
1.187455
1.176685
1.122015
0.819481
0.468845
0.051575
-0.413781
-0.78191
-1.03061
-1.319405
-1.333333
-1.333333
-1.250373
-0.881946
-0.518476
-0.054786
0.458453
0.838913
1.177229
1.333333
1.333333
1.292153
1.097707
0.716463
0.390008
0.047744
-0.377372
-0.727704
-0.946261
-1.193565
-1.300846
-1.333333
-1.303202
-1.002802
-0.715772
-0.324907
0.137164
0.513204
0.804665
1.152092
1.274907
1.2346
1.043756
0.619267
0.241251
-0.064087
-0.423526
-0.744297
-1.085585
-1.333333
-1.329924
-1.2118
-1.077778
-0.824935
-0.545794
-0.189938
0.28102
0.731771
1.023001
1.23288
1.242592
1.193661
1.092395
0.786855
0.471702
0.140331
-0.299822
-0.678403
-0.921278
-1.104217
-1.173023
-1.192684
-1.113512
-0.823811
-0.475484
-0.180883
0.211357
0.559992
0.796061
1.021019
1.07372
1.057214
0.960543
0.752637
0.404146
0.018197
-0.395042
-0.720665
-1.00281
-1.241096
-1.289574
-1.307732
-1.210697
-0.774019
-0.410842
-0.102627
0.218175
0.540224
0.779751
1.065056
1.146635
1.131124
1.026801
0.674922
0.261146
-0.08504
-0.521152
-0.835965
-0.999757
-1.174818
-1.246916
-1.253441
-1.19513
-0.958004
-0.616979
-0.147454
0.228222
0.546926
0.904315
1.122656
1.074704
1.180597
1.240241
0.799305
0.319436
-0.022358
-0.487456
-0.77485
-1.039019
-1.290203
-1.333333
-1.301879
-1.233193
-0.961572
-0.560714
-0.182775
0.28851
0.699778
1.019454
1.228039
1.254971
1.211989
1.132501
0.855888
0.508442
0.150824
-0.225142
-0.617361
-0.952064
-1.227526
-1.333333
-1.333333
-1.329168
-1.006717
-0.638589
-0.323751
0.149505
0.709817
1.068369
1.290111
1.222814
1.123339
1.015256
0.669041
0.347378
-0.026228
-0.472352
-0.783148
-1.064659
-1.333333
-1.333333
-1.333333
-1.333333
-0.943619
-0.528466
-0.24658
0.207197
0.644112
0.923896
1.029737
1.078462
1.09229
0.998825
0.704936
0.311669
-0.062395
-0.436839
-0.76004
-1.004241
-1.177567
-1.218769
-1.24793
-1.176394
-1.037677
-0.686087
-0.287197
0.178605
0.57899
0.919166
1.150156
1.29409
1.289913
1.124014
0.824395
0.444128
0.123534
-0.220178
-0.463892
-0.702787
-0.938824
-1.109192
-1.209869
-1.142471
-1.051137
-0.69442
-0.287057
0.14318
0.473945
0.790822
0.972245
1.098848
1.080136
1.036004
0.921309
0.599469
0.174629
-0.222208
-0.592072
-0.833329
-1.077299
-1.234877
-1.233802
-1.166061
-1.041688
-0.70268
-0.40308
0.03034
0.362009
0.554575
0.705597
0.860491
1.049953
0.805003
0.788677
0.422723
-0.001197
-0.399962
-0.813375
-1.102545
-1.226181
-1.333333
-1.333333
-1.316376
-1.140696
-0.799744
-0.460045
-0.078349
0.159668
0.435675
0.653044
0.839579
1.034071
1.00379
0.89924
0.562406
0.197934
-0.10132
-0.281735
-0.491107
-0.81639
-1.149255
-1.323537
-1.301464
-0.955943
-0.547654
-0.187198
0.101632
0.412541
0.718996
0.946835
1.21151
1.239509
1.021196
0.74671
0.454546
0.102126
-0.293897
-0.683513
-1.05831
-1.259313
-1.333333
-1.333333
-1.055978
-0.837758
-0.531436
-0.216099
0.163277
0.582777
0.910422
1.087818
1.255583
1.213328
1.059433
0.850587
0.41114
0.047412
-0.311626
-0.716714
-1.021296
-1.193366
-1.333333
-1.333333
-1.280311
-1.034604
-0.662955
-0.233123
0.274172
0.704077
1.03032
1.147501
1.2289
1.139579
0.990512
0.808154
0.414398
0.027174
-0.499396
-1.025982
-1.173335
-1.333333
-1.333333
-1.333333
-1.333333
-1.333333
-1.011239
-0.583497
-0.118097
0.324993
0.729075
1.063142
1.333333
1.333333
1.333333
1.301657
0.852011
0.31535
-0.202294
-0.646534
-1.067078
-1.333333
-1.333333
-1.333333
-1.333333
-1.307089
-0.712402
-0.26042
0.243777
0.554848
0.812409
1.075043
1.275257
1.217545
1.13972
1.003542
0.61706
0.291147
-0.104691
-0.534735
-0.847317
-1.069943
-1.138404
-1.333333
-1.308686
-1.135464
-0.710983
-0.322442
0.25755
0.639838
0.842719
1.011373
1.273971
1.333333
1.316705
1.240822
0.968855
0.546949
-0.018599
-0.550628
-1.034169
-1.333333
-1.333333
-1.333333
-1.333333
-1.333333
-1.214085
-0.853602
-0.367454
0.262454
0.731876
0.927957
1.022074
1.082903
1.158433
1.093755
0.715489
0.398568
-0.083203
-0.686812
-1.000729
-1.162274
-1.333333
-1.333333
-1.333333
-1.036039
-0.5701
-0.32261
-0.028737
0.275391
0.455406
0.590224
1.022817
1.046221
1.038248
1.017781
0.735689
0.465713
0.051254
-0.224617
-0.698423
-1.166621
-1.333333
-1.333333
-1.333333
-1.300358
-0.919645
-0.373411
0.163581
0.465492
0.671991
0.718503
0.95806
1.032795
0.95588
0.765602
0.258238
-0.0095
-0.180573
-0.513806
-0.845946
-1.125613
-1.333333
-1.333333
-1.333333
-1.333333
-1.134833
-0.869732
-0.493398
-0.087905
0.493804
1.01277
1.333333
1.333333
1.333333
1.257536
0.813771
0.335741
-0.071063
-0.596487
-1.11483
-1.333333
-1.333333
-1.333333
-1.333333
-1.283505
-0.766784
-0.474229
-0.202717
0.22434
0.690271
1.034574
1.258476
1.24849
1.214793
0.925172
0.404903
0.096228
-0.196148
-0.624232
-0.892021
-1.198047
-1.333333
-1.333333
-1.333333
-1.333333
-1.14637
-0.755169
-0.381714
0.096912
0.600554
1.002794
1.182024
1.234762
1.194156
1.055804
0.783369
0.357584
-0.062748
-0.365809
-0.607386
-0.961704
-1.269802
-1.304707
-1.258382
-1.05491
-0.725528
-0.508669
-0.017305
0.47927
0.890146
1.019376
1.08239
1.029178
0.967197
0.964343
0.684139
0.509215
0.122909
-0.234375
-0.556365
-0.796865
-1.052452
-1.171285
-1.306755
-1.333333
-1.333333
-1.198737
-0.84166
-0.441782
-0.115478
0.256011
0.552886
0.650245
0.849114
1.145047
0.843209
0.43817
0.151264
-0.301007
-0.763589
-1.057789
-1.278605
-1.260257
-1.221056
-1.144815
-0.886828
-0.643537
-0.260798
0.541022
1.333333
1.333333
1.333333
1.333333
1.170048
1.033962
0.80788
0.285277
-0.126145
-0.527448
-0.68355
-0.977683
-1.276969
-1.296757
-1.314616
-1.192265
-0.951548
-0.691477
-0.422005
0.034776
0.450645
0.68592
0.905838
1.01387
1.130946
1.21912
0.855629
0.38686
-0.227977
-0.72645
-1.056189
-1.261151
-1.183966
-1.333333
-1.326346
-1.093378
-0.771607
-0.512772
-0.283273
-0.020968
0.142131
0.629178
1.021469
1.039617
1.132539
0.99485
0.729349
0.431255
0.154328
-0.294624
-0.730875
-1.065104
-1.326493
-1.333333
-1.247593
-1.015285
-0.749088
-0.381448
-0.060899
0.255789
0.545841
1.024768
1.300143
1.329308
1.267352
1.048127
0.620857
0.118123
-0.229275
-0.536332
-0.973222
-1.257854
-1.333333
-1.333333
-1.195877
-0.923199
-0.813553
-0.667654
-0.177574
0.074787
0.333006
0.620417
0.879066
0.99827
1.028946
1.033441
0.783109
0.613715
0.119604
-0.49974
-1.012526
-1.333333
-1.333333
-1.333333
-1.333333
-1.333333
-1.333333
-0.831976
-0.419327
0.166563
0.733908
1.037183
1.333333
1.333333
1.333333
1.333333
1.068767
0.628215
0.451083
-0.210299
-0.815494
-1.201148
-1.333333
-1.333333
-1.333333
-1.08172
-0.846066
-0.499305
-0.135829
0.230773
0.624266
0.918028
1.131221
1.306936
1.333333
1.307368
1.013283
0.6328
0.274764
-0.108852
-0.567162
-0.956523
-1.061011
-1.287929
-1.333333
-1.302617
-1.113426
-0.851009
-0.5207
-0.172372
0.193116
0.651806
0.826695
0.851124
0.831183
1.074568
1.100853
0.627673
0.064513
-0.499204
-0.961156
-1.059722
-1.28422
-1.333333
-1.333333
-1.333333
-1.30952
-0.901531
-0.510473
-0.181977
0.266305
0.607185
0.880758
1.086319
1.215651
1.195933
0.814818
0.384028
0.08123
-0.349986
-0.75264
-0.553075
-0.806863
-1.01604
-1.102065
-1.052706
-0.890576
-0.506705
-0.089294
0.370022
0.709627
1.135774
1.091065
1.160015
1.31111
1.23501
0.997681
0.548491
0.188389
-0.221312
-0.714645
-0.959198
-0.996251
-1.120244
-1.235377
-1.175228
-1.029631
-0.650639
-0.285972
0.242039
0.803652
1.02079
1.103643
1.254398
1.244585
1.152716
0.907276
0.432997
0.05174
-0.320062
-0.676575
-1.029981
-1.306677
-1.333333
-1.333333
-1.306571
-1.144509
-0.777955
-0.277031
0.246725
0.725574
1.061186
1.285275
1.333333
1.333333
1.229618
0.994103
0.614677
0.269625
-0.18436
-0.732616
-1.13515
-1.333333
-1.333333
-1.333333
-1.333333
-1.275208
-0.71551
-0.249638
0.231553
0.564796
0.876682
0.946181
0.986665
0.853935
0.639535
0.390442
0.030324
-0.218416
-0.468853
-0.879859
-1.202065
-1.214269
-1.333333
-1.333333
-1.333333
-1.094335
-0.568636
-0.201193
0.232015
0.671292
0.954794
1.138764
1.294592
1.262674
1.211471
1.152271
0.868361
0.53192
0.125395
-0.3246
-0.656206
-0.854235
-1.073082
-1.119842
-1.099805
-1.02983
-0.640122
-0.242947
0.064841
0.499181
0.836111
1.044763
1.172683
1.084041
1.06452
1.121558
0.783228
0.276075
-0.202272
-0.57773
-1.014392
-1.153491
-1.202628
-1.2004
-1.210616
-1.118028
-0.815177
-0.553139
-0.052166
0.495392
0.820338
0.891216
1.122945
1.160888
1.088741
0.907569
0.473221
0.18406
-0.116935
-0.452462
-0.7681
-0.89783
-1.275945
-1.333333
-1.333333
-1.181036
-0.80483
-0.414688
0.007528
0.469166
0.791178
0.99171
1.209479
1.288981
1.236508
1.106905
0.754593
0.442795
0.059887
-0.393576
-0.803308
-1.050675
-1.255595
-1.287929
-1.245199
-1.034906
-0.64436
-0.380481
-0.12368
0.281793
0.727713
0.921205
1.161939
1.294309
1.30072
1.105919
0.598922
0.212277
-0.095462
-0.491368
-0.812615
-1.059307
-1.276533
-1.258305
-1.170457
-1.020315
-0.673714
-0.315884
-0.023239
0.249103
0.535454
0.799057
1.06494
1.150927
1.151218
1.064933
0.676926
0.251155
-0.038904
-0.353345
-0.817414
-1.181545
-1.333333
-1.333333
-1.333333
-1.333333
-0.993764
-0.571585
-0.202861
0.21004
0.717665
0.99904
1.289714
1.333333
1.333333
1.266128
0.78329
0.552055
0.15393
-0.395986
-0.678202
-0.875506
-1.097948
-1.333333
-1.333333
-1.121663
-0.735345
-0.42354
-0.12621
0.191498
0.562341
0.935488
1.217083
1.235912
1.19241
1.06132
0.762564
0.503794
0.185512
-0.231237
-0.627972
-0.91731
-1.166316
-1.220276
-1.203011
-1.082455
-0.773176
-0.470535
-0.154531
0.398969
0.779371
1.01916
1.216209
1.27939
1.266489
1.155237
0.821042
0.4859
0.117129
-0.342006
-0.801056
-1.10431
-1.3194
-1.333333
-1.251134
-1.044955
-0.71461
-0.440647
-0.187954
0.137845
0.524254
0.91609
1.083983
1.059691
1.20097
1.242683
0.884817
0.42858
0.000574
-0.464469
-0.854839
-1.160038
-1.333333
-1.333333
-1.333333
-1.333333
-0.869439
-0.546229
-0.178847
0.404861
0.729261
0.956699
1.191608
1.333333
1.220479
1.042461
0.947867
0.40543
-0.040004
-0.474909
-0.90888
-1.219331
-1.333333
-1.333333
-1.333333
-1.052009
-0.764553
-0.470467
-0.151338
0.346983
0.724823
0.983607
1.188412
1.300821
1.323067
1.237199
1.048388
0.741667
0.362263
-0.213936
-0.670314
-0.891852
-0.984835
-1.115162
-1.120749
-1.046983
-0.886198
-0.601275
-0.287839
0.158587
0.550696
0.837799
1.029343
1.096909
1.117368
1.009459
0.737963
0.417101
0.062297
-0.417056
-0.797106
-1.02398
-1.16698
-1.292001
-1.322993
-1.326393
-1.008062
-0.58639
-0.194145
0.240693
0.661074
0.925177
1.100783
1.253484
1.299656
1.147603
0.851301
0.533607
0.247178
-0.27477
-0.631811
-0.801046
-0.995585
-1.066497
-1.174444
-0.982547
-1.008174
-0.819904
-0.505719
-0.136028
0.513118
0.79437
1.019925
1.271262
1.212996
1.085369
0.825485
0.432105
0.051769
-0.319905
-0.678946
-0.931689
-1.120937
-1.205458
-1.159538
-0.875682
-0.183444
0.041591
0.088564
0.313516
0.57367
0.827514
1.219494
1.333333
1.29564
1.05884
0.753977
0.394838
0.033747
-0.36549
-0.723964
-0.957595
-1.122216
-1.274707
-1.333333
-1.245696
-1.075862
-0.756552
-0.311063
0.180402
0.527478
0.757199
0.976709
1.196672
1.333333
1.118348
0.81538
0.369818
0.033627
-0.294921
-0.6913
-0.991494
-1.252307
-1.333333
-1.333333
-1.322446
-1.170408
-0.831338
-0.415388
-0.010095
0.485469
0.990568
1.252635
1.333333
1.333333
1.20753
0.956852
0.54083
0.177147
-0.232172
-0.640199
-0.945046
-1.085155
-1.160607
-1.178324
-1.086247
-0.894618
-0.545498
-0.20207
0.158869
0.457749
0.590369
0.668228
0.877647
1.02281
0.94511
0.83178
0.629557
0.340276
-0.20268
-0.725906
-1.030122
-1.024812
-1.124163
-1.185541
-1.083613
-0.921075
-0.55068
-0.224608
0.11844
0.474023
0.804831
1.067982
1.229648
1.169003
1.035173
0.812114
0.341033
-0.005623
-0.371379
-0.775032
-0.888508
-1.001727
-1.223249
-1.115512
-1.111984
-1.109528
-0.625297
-0.137877
0.248302
0.468257
0.738713
0.986625
1.164582
1.205772
1.118754
0.919958
0.540689
0.315984
-0.012416
-0.38484
-0.718483
-1.018264
-1.322206
-1.333333
-1.224721
-1.042004
-0.83956
-0.636419
-0.258492
0.423683
0.815388
1.019436
1.229051
1.282678
1.15326
0.988102
0.600759
0.295469
-0.031421
-0.481035
-0.900202
-1.157913
-1.333333
-1.333333
-1.333333
-1.333333
-0.900844
-0.313093
0.279446
0.712196
1.022409
1.035045
1.122992
1.109503
1.119822
1.064766
0.716645
0.432457
0.162457
-0.206402
-0.536661
-0.803024
-1.170256
-1.309348
-1.333333
-1.297482
-0.940262
-0.511588
-0.102007
0.340547
0.690405
0.948436
1.237474
1.333333
1.309158
1.020143
0.618586
0.270666
-0.182573
-0.534481
-0.990125
-1.33217
-1.333333
-1.333333
-1.333333
-1.176098
-0.845266
-0.570894
-0.246901
0.194973
0.564179
0.838673
1.162695
1.333333
1.333333
1.036894
0.412718
0.290864
-0.082798
-0.587834
-0.755322
-1.083639
-1.333333
-1.286968
-1.309415
-1.158533
-0.728822
-0.313975
0.082303
0.446039
0.747197
0.942286
1.136975
1.149267
1.098818
0.942895
0.563782
0.288007
-0.215183
-0.545912
-0.808907
-0.860264
-0.979265
-1.082874
-1.244159
-1.199467
-0.865195
-0.47367
-0.017259
0.526445
0.974074
1.19463
1.333333
1.333333
1.252391
1.018906
0.57727
0.203531
-0.174966
-0.597808
-0.946334
-1.252174
-1.333333
-1.333333
-1.232678
-1.003554
-0.697875
-0.341765
-0.009556
0.320747
0.63237
0.842691
1.118333
1.188513
1.121673
0.896595
0.666739
0.317829
-0.094739
-0.506417
-0.88584
-1.191502
-1.333333
-1.333333
-1.333333
-1.248052
-0.785961
-0.340874
0.071139
0.446635
0.697924
0.843079
0.981385
1.039838
1.005879
1.176408
0.68012
0.122991
-0.177655
-0.471087
-0.802217
-1.081218
-1.333333
-1.333333
-1.333333
-1.294073
-0.792473
-0.478861
-0.269767
0.097854
0.573986
1.002251
1.333333
1.333333
1.166911
1.004193
0.634436
0.387234
0.109119
-0.453758
-0.690371
-0.958232
-1.278327
-1.331016
-1.319908
-1.146165
-0.805361
-0.521449
-0.251825
0.16018
0.683901
1.115763
1.333333
1.318769
1.272885
1.025937
0.583022
0.210604
-0.164799
-0.58638
-0.898193
-1.114353
-1.333333
-1.272578
-1.157919
-1.15214
-0.924642
-0.711346
-0.410058
0.090197
0.531764
0.799737
1.053872
1.150253
1.02067
0.906166
0.550417
0.192382
-0.035029
-0.330674
-0.693421
-1.136285
-1.333333
-1.333333
-1.333333
-1.104038
-0.520849
-0.376324
-0.041016
0.22554
0.794285
0.831517
0.848129
0.810434
0.739072
0.60609
0.32572
0.113316
0.248174
-0.15344
-0.810669
-1.052414
-1.333333
-1.333333
-1.333333
-1.333333
-0.836568
-0.798395
-0.617117
0.094271
1.333333
1.333333
1.333333
0.983878
0.639993
0.669596
0.470374
0.3121
-0.030024
-0.376855
-0.726991
-1.101901
-1.251653
-1.242821
-1.229587
-1.095683
-0.733966
-0.344165
-0.054098
0.313631
0.643359
0.861416
0.994701
1.024511
0.976809
0.903428
0.631802
0.270513
-0.117587
-0.571185
-0.897939
-1.081628
-1.27059
-1.306283
-1.333333
-1.333333
-1.129876
-0.752476
-0.295583
0.145814
0.546535
0.866357
1.037291
1.06242
1.009437
0.867649
0.572506
0.144123
-0.347128
-0.722016
-0.911828
-0.973297
-1.333333
-1.333333
-0.973985
-0.242559
-0.821834
-0.950921
-0.739475
-0.125596
0.414331
0.742962
1.07728
0.957493
0.879464
0.802411
0.817427
0.361407
-0.166577
-0.659942
-1.111777
-1.333333
-1.333333
-1.333333
-1.333333
-1.333333
-1.005643
-0.157902
-0.172706
0.261922
0.44544
0.776938
1.050645
1.087364
1.122729
1.070746
0.872534
0.550017
0.264699
-0.097721
-0.418402
-0.7155
-0.955774
-1.123402
-1.204493
-1.229909
-1.139939
-0.905033
-0.561026
-0.132735
0.271537
0.580583
0.783785
0.891348
0.917736
0.895209
0.757887
0.394744
0.038099
-0.377689
-0.722159
-1.05432
-1.30434
-1.333333
-1.302493
-1.228384
-1.058331
-0.724183
-0.398462
-0.037845
0.287804
0.592716
0.804586
0.860427
0.891922
0.763826
0.642437
0.198635
-0.16542
-0.487977
-0.92107
-1.323898
-1.333333
-1.229198
-1.178798
-1.23216
-1.106861
-0.925805
-0.650695
-0.400296
0.269486
0.93099
1.019409
1.15935
0.747762
0.603659
1.000142
0.514095
-0.067631
-0.140953
-0.717851
-1.333333
-1.333333
-1.333333
-1.15886
-1.215841
-1.099474
-0.778148
-0.406575
-0.001163
0.390237
0.616651
0.666701
0.867643
0.85058
0.769916
0.45372
0.283697
0.475272
0.129925
-0.641211
-0.990423
-1.219504
-1.307722
-1.266704
-1.28804
-1.091366
-0.721006
-0.334838
0.072123
0.479503
0.800099
1.046019
1.250109
1.273147
1.171108
0.949077
0.478722
0.066207
-0.346295
-0.74993
-1.039782
-1.277121
-1.333333
-1.333333
-1.333333
-1.276775
-0.861705
-0.433591
-0.1362
0.129512
0.48256
0.728759
0.852598
0.926306
0.91543
0.740964
0.364819
0.000506
-0.451551
-0.939317
-1.178319
-1.244688
-1.30339
-1.151266
-0.978158
-0.732529
-0.626543
-0.470731
-0.47225
-0.141048
0.593518
0.919532
1.327893
1.333333
1.055644
0.652358
0.219382
-0.164192
-0.406082
-0.778863
-1.054635
-1.211577
-1.328385
-1.333333
-1.280348
-1.194961
-0.946861
-0.708281
-0.465185
-0.277096
-0.047654
0.191693
0.629837
0.999964
0.922006
1.130125
1.333333
0.596358
-0.166348
-0.650269
-1.046452
-1.121464
-1.267401
-1.272289
-1.208628
-1.058176
-0.474808
-0.053993
0.253403
0.642588
0.964837
1.13739
1.297819
1.233898
1.015289
0.725369
0.342254
0.002029
-0.406486
-0.868094
-1.169094
-1.333333
-1.333333
-1.333333
-1.333333
-1.271672
-0.940814
-0.554528
-0.092995
0.294599
0.655844
0.98839
1.227865
1.243885
1.101811
0.885348
0.522016
0.159098
-0.257956
-0.67921
-0.986872
-1.288377
-1.333333
-1.333333
-1.333333
-1.333333
-0.950904
-0.392568
0.216725
0.58998
0.165714
0.109802
0.642043
1.333333
1.333333
0.969996
0.267842
-0.192034
-0.531027
-0.838094
-1.22997
-1.333333
-1.333333
-1.084651
-0.973702
-1.107476
-1.075984
-0.832815
-0.42259
-0.009519
0.353612
0.650058
1.116889
1.163923
1.150204
1.060578
0.404692
-0.088559
-0.366828
-0.360555
-0.870162
-0.818226
-0.758557
-1.120005
-1.333333
-1.333333
-1.061175
-0.680865
-0.286222
0.184982
0.699933
1.053752
1.036696
1.072891
1.075665
0.963164
0.642057
0.33999
0.009648
-0.353429
-0.630746
-0.831868
-1.084252
-1.156179
-1.121901
-1.041175
-0.854591
-0.683444
-0.518677
-0.063022
0.417811
0.60664
0.796856
0.885021
0.830539
0.772839
0.531251
0.269127
-0.174802
-0.669877
-0.981717
-1.257081
-1.333333
-1.333333
-1.333333
-1.333333
-1.041555
-0.713734
-0.208066
0.209052
0.540399
0.931884
1.333333
1.333333
0.532364
0.355987
0.216795
0.369301
-0.12882
-0.526417
-0.614638
-0.864572
-1.333333
-1.333333
-1.333333
-1.223213
-0.927263
-0.567383
-0.270734
-0.001413
0.34815
0.487699
0.433921
0.376195
0.40009
0.699403
0.552943
0.556648
0.329276
-0.3914
-0.696291
-0.992315
-0.919533
-1.269176
-1.333333
-1.242779
-0.962818
-0.571985
0.020561
0.47535
0.761426
0.948802
1.135456
1.189355
1.178919
1.075045
0.75333
0.395724
0.048361
-0.363914
-0.782723
-1.149287
-1.333333
-1.333333
-1.333333
-1.333333
-1.203061
-0.815782
-0.390459
0.06037
0.444344
0.701036
0.940718
0.884792
0.879849
0.856057
0.621821
0.229777
-0.24602
-0.67981
-1.104352
-1.333333
-1.309421
-1.120819
-1.333333
-1.333333
-0.851372
-0.674748
-0.769399
-0.072884
0.170532
1.187527
1.007541
1.145758
1.011232
0.712016
0.392151
0.099977
-0.199298
-0.43902
-1.055637
-1.333333
-1.333333
-1.333333
-1.333333
-1.333333
-0.797473
-0.621671
-0.209935
-0.255233
-0.019749
0.726144
1.014393
0.80195
1.239692
0.959546
0.780842
-0.132852
0.053977
-0.684575
-0.909624
-1.333333
-1.333333
-0.717269
-0.84172
-1.158875
-0.791123
-0.568418
-0.218514
0.169002
0.487033
0.798446
0.963893
0.999453
0.965536
0.822817
0.61606
0.36106
0.094869
-0.392985
-0.802493
-0.997385
-1.25444
-1.333333
-1.224644
-1.148516
-0.82874
-0.579083
-0.38044
-0.058185
0.386135
0.859408
1.003024
0.920863
0.650816
0.393895
-0.037969
-0.109866
-0.202399
-0.177647
-0.259723
-0.10018
-0.861051
-1.333333
-1.333333
-1.333333
-0.998695
-1.017036
-1.333333
-1.151439
-0.36822
0.983609
0.308376
0.343806
1.0149
1.333333
1.259671
0.771168
0.114914
-0.378313
-1.00714
-1.261292
-1.333333
-1.333333
-1.333333
-1.195513
-0.68038
-0.131617
-0.343232
-0.164455
0.302342
0.389514
0.374954
0.507094
0.746664
0.617873
0.31996
0.10484
0.708075
-0.486206
-1.326086
-0.832157
-0.820161
-1.066182
-1.333333
-1.333333
-1.021753
-0.839187
-0.964736
-0.49925
0.440846
1.256527
1.175669
0.916645
0.626966
0.560289
0.554807
0.292369
-0.117671
-0.511252
-0.781809
-1.333333
-1.333333
-1.333333
-0.839984
-0.858343
-0.974458
-0.498359
-0.359217
-0.420945
0.114348
0.706109
1.001053
0.831184
0.772378
0.195754
-0.094359
-0.359966
-0.130038
-0.124194
-0.622944
-0.53333
-1.177094
-1.318433
-1.333333
-1.333333
-1.333333
-1.333333
-1.189884
-0.22401
-0.397192
0.698333
1.155894
1.333333
1.333333
0.922134
0.552105
0.081039
-0.359023
-0.486283
-0.773557
-0.927046
-1.195375
-1.333333
-1.333333
-1.333333
-0.890953
-0.50608
-0.648993
-0.247844
0.440809
1.239902
0.796483
0.884064
0.602973
0.35357
1.146215
0.538588
0.461112
-0.356148
-0.86329
-1.106517
-1.230047
-1.333333
-1.333333
-1.324546
-1.148001
-0.877843
-0.895995
-0.986224
-0.636346
-0.195598
0.24079
1.055184
0.503186
-0.244918
-0.140912
0.47534
1.333333
0.582185
-0.87824
-1.242598
-1.080653
-1.333333
-1.333333
-1.333333
-1.333333
-1.167877
-0.354375
-0.529108
-0.506736
-0.02925
0.486762
0.857363
0.219963
-0.043648
0.238218
1.333333
1.31724
-0.225362
-1.333333
-1.333333
-1.333333
-1.333333
-1.051931
-0.416629
-1.080105
-1.333333
-1.333333
-0.542758
0.28886
1.333333
1.172806
0.657084
0.989771
0.873832
0.760338
0.660656
0.145066
-0.296341
-0.976599
-1.281967
-1.333333
-1.333333
-1.259091
-1.333333
-1.333333
-0.993312
-0.829042
-0.587315
-0.301807
0.490074
0.888219
1.175653
1.333333
1.048394
1.227156
0.541992
-0.187471
-0.64789
-0.925935
-1.132211
-1.29986
-1.333333
-1.054511
-1.333333
-1.333333
-1.333333
-1.0204
-0.790143
-1.195773
-1.169024
0.25212
1.333333
1.333333
1.027196
-0.120141
-0.535739
-0.542772
-0.465689
-0.264081
-0.178276
-0.883366
-1.333333
-1.333333
-1.333333
-1.333333
-1.20062
-1.007947
-0.501605
-0.06533
0.113889
0.189101
0.024108
0.046903
0.92876
1.333333
-0.128365
-0.944422
1.328359
1.158979
-0.59621
-1.333333
-1.333333
-1.333333
-1.333333
-1.333333
-1.030168
-0.708868
-0.51524
-0.120634
-0.044138
0.17531
0.729157
0.798214
0.926119
0.58208
0.668767
0.688824
-0.466729
-0.950479
-1.082747
-1.194987
-0.831996
-0.957902
-1.061785
-0.988037
-0.869879
-0.760897
-0.561657
0.109183
0.986312
0.736522
0.591987
0.476568
0.620749
0.60841
0.058242
-0.558045
-0.438035
0.693441
-0.544703
-1.333333
-1.333333
-1.333333
-1.333333
-1.333333
-0.988939
-1.333333
-0.657459
0.252066
-0.023089
0.195072
0.853035
0.844606
0.95503
1.100003
0.921818
0.263272
-0.2854
-0.761944
-1.10044
-1.333333
-1.333333
-1.333333
-1.333333
-1.316073
-1.333333
-0.647727
0.060615
0.505935
1.156792
0.38839
0.094885
0.237985
0.027652
-0.604939
-0.818426
0.69244
0.783691
0.030419
-0.907649
-1.300266
-1.333333
-0.934997
-1.333333
-1.333333
-1.117896
-0.907884
-0.467623
0.257443
0.510701
0.181975
0.280884
0.273432
0.199065
0.376709
-0.064096
-0.481404
-0.384405
-1.247119
-1.162809
-0.327697
-0.890033
-1.333333
-1.333333
-1.333333
-1.333333
-1.333333
-1.333333
-0.881777
0.832613
1.333333
1.308588
0.679349
0.491082
0.413437
0.118715
0.132381
-0.127156
-0.516197
-1.333333
-1.333333
-1.333333
-1.333333
-0.364617
-0.953933
-0.984671
-0.9125
-0.693922
-0.065891
0.594382
1.114781
1.213435
1.246114
1.105481
0.961489
0.650556
0.319859
0.01249
-0.532664
-1.175344
-1.333333
-1.333333
-1.333333
-1.017618
-1.333333
-1.333333
-1.202577
-0.886252
-0.475313
-0.171936
-0.033852
-0.043719
0.446808
0.819843
0.523626
-0.284924
-0.811956
-1.066555
-1.089482
-0.475383
-0.807767
-1.333333
-1.333333
-1.333333
-1.333333
-1.229658
1.123268
0.432632
0.345873
0.340174
0.487592
0.822609
0.527534
-0.032869
-0.124664
-0.026297
1.085644
0.01054
-1.151491
-0.580063
-1.205163
-1.333333
-1.333333
-1.333333
-1.256791
-0.740117
-0.178035
-0.101689
0.177951
0.663857
1.019176
1.04968
1.009494
0.85184
0.457856
-0.149097
-0.312087
-0.496975
-0.10756
0.09883
-1.089002
-1.333333
-1.333333
-1.333333
-1.333333
-1.333333
-1.036789
-0.64164
-0.344863
0.251244
0.581372
0.603194
0.594222
0.646914
0.594657
0.797821
0.51667
0.09425
-0.63384
-1.185841
-1.333333
-1.333333
-1.333333
-1.333333
-1.333333
-1.333333
-1.333333
-1.178476
-0.333334
1.244765
1.08567
0.9612
0.87575
0.882298
0.422596
0.080518
0.010924
-0.02468
-0.199386
-1.174739
-1.006576
-0.380622
-0.633502
-1.327004
-1.333333
-1.144325
-0.601182
-0.685657
-0.391009
0.036428
0.501124
1.011357
0.985116
0.671247
0.493364
0.173915
-0.295587
-0.528915
-1.25183
-1.333333
-1.333333
-1.333333
-1.333333
-0.45899
-0.922371
-0.545017
-0.191526
0.121254
0.259735
0.540061
0.88844
1.108565
1.119166
0.868955
0.664632
0.303721
-0.234321
-0.355062
-0.235685
-1.051622
-1.333333
-1.333333
-1.333333
-0.810741
-0.818918
-1.153207
-0.999944
-0.711837
-0.279681
0.184551
0.552747
0.58542
0.679809
0.783819
0.917785
0.931671
0.384006
-0.158843
-0.324292
-0.589526
-0.42224
-1.189461
-1.333333
-1.333333
-1.212
-1.310046
-1.059127
-1.057419
-0.090242
-0.151995
0.093811
0.229361
0.728188
0.292177
0.360156
0.401508
-0.085166
0.411814
-0.338303
-0.58414
-1.033322
-1.193009
-1.31583
-0.760992
-0.720636
-0.68753
-0.502913
-0.267823
-0.110275
0.207527
0.39302
0.311508
0.446476
0.653769
0.195445
-0.29496
-0.474666
-0.485815
-0.624034
-0.714084
-0.899271
-1.166134
-1.035662
-1.020284
-1.132622
-1.049283
-0.929547
-0.826516
-0.521437
0.222892
0.546812
1.333333
1.149184
0.823443
1.09642
0.666871
0.242087
0.111623
-0.203858
-1.098609
-1.333333
-1.109382
-1.333333
-1.208448
-1.333333
-1.333333
-1.245163
-0.5333
0.924188
1.146342
0.677632
0.455279
0.61312
0.954123
0.91717
0.687169
0.237965
-0.108411
-0.368243
-0.896346
-1.333333
-1.333333
-1.189599
-1.333333
-1.333333
-1.333333
-1.333333
-1.016643
-0.938453
0.180404
0.589518
0.279557
0.198399
0.362673
0.237288
0.401227
0.289268
0.362392
0.566997
-0.071859
-1.142073
-1.292995
-1.15483
-1.23536
-1.333333
-1.276475
-0.791023
-0.399487
-0.019344
0.398936
0.77295
0.888714
1.065214
1.092565
1.009067
0.753467
0.369262
0.244748
-0.034326
-0.463302
-1.005102
-1.320172
-1.333333
-0.983597
-1.059883
-1.235283
-1.122509
-0.870851
-0.3927
0.436826
0.249675
0.588604
1.226777
0.867095
0.26429
-0.05375
-0.298894
0.008967
1.003199
-0.241147
-1.166748
-1.333333
-1.255463
-1.333333
-1.333333
-1.333333
-1.31323
0.021405
0.124963
-0.116107
0.210518
0.344539
0.410451
0.431282
0.724239
0.767009
0.488752
0.360284
-0.131365
-0.540418
-0.97937
-1.197851
-1.333333
-1.270575
-1.333333
-1.22999
-0.892397
-0.608297
-0.084595
0.218842
0.361447
0.347378
0.558098
0.618935
0.547356
1.194332
1.033762
0.153677
-0.115358
-0.99862
-1.333333
-1.333333
-1.333333
-1.333333
-1.115658
-1.333333
-0.526238
-0.345912
-0.147692
0.199255
0.442069
0.704502
1.299125
1.027425
0.713141
0.631251
0.517683
0.171107
-0.197449
-0.426154
-0.491833
-0.681108
-1.256353
-1.22961
-0.98635
-0.989856
-1.033589
-0.602631
-0.234812
0.170546
0.430948
0.670543
0.989587
1.105418
1.042173
0.804511
0.469237
0.189171
-0.1388
-0.553617
-0.817919
-1.285756
-1.333333
-1.333333
-1.333333
-1.296765
-0.625373
-0.368049
-0.15224
0.037238
0.407487
0.970511
1.247966
0.995525
1.036051
0.824345
0.382178
0.006443
-0.330284
-0.714668
-0.905095
-0.944539
-1.333333
-1.333333
-1.333333
-1.056081
-0.867946
-0.868313
-0.551283
0.014455
0.603994
0.824555
0.978867
0.761943
0.34922
0.307779
0.889865
0.536735
-0.086003
-0.457481
-1.005291
-1.273775
-1.333333
-1.333333
-1.333333
-1.333333
-1.207366
-0.830369
-0.338179
0.083105
0.327616
0.621045
0.989449
1.124152
1.269415
1.066264
0.771068
0.440142
0.06313
-0.438324
-0.824721
-0.98134
-1.053199
-0.721439
-1.081067
-1.26393
-0.875348
-0.66518
-0.333072
0.087902
0.400846
0.648611
0.889801
0.993569
1.035494
1.065271
0.844552
0.454336
0.094066
-0.342242
-0.620334
-0.879575
-1.194396
-1.333333
-1.333333
-1.333333
-1.284919
-0.367298
0.049387
1.037716
0.805242
0.431678
0.579979
0.718133
0.870754
0.847581
0.534063
0.16781
-0.108389
-0.331944
-0.653212
-0.926612
-1.164992
-1.225751
-1.238489
-1.165731
-0.828547
-0.557183
-0.331129
-0.017702
0.307026
0.582766
0.95876
1.148033
1.137565
1.147059
0.509633
0.112074
-0.17362
-0.59511
-0.747862
-1.128581
-1.300109
-1.333333
-1.333333
-1.333333
-1.058663
-0.78213
-0.448754
-0.010967
0.374424
0.699881
0.998314
1.03954
1.072648
1.120344
0.676748
0.392181
0.026591
-0.373275
-0.660581
-0.975469
-1.192165
-1.144257
-1.302606
-1.333333
-1.032226
-0.596099
-0.342077
-0.127362
0.215245
0.53084
0.825996
1.151499
1.330334
1.096597
0.665636
0.298005
0.012397
-0.333738
-0.675913
-1.00346
-1.236167
-1.294253
-1.23161
-1.090167
-0.932832
-0.612088
-0.328035
0.015937
0.384123
0.673676
0.846376
0.834339
0.776569
0.689861
0.469857
0.320547
0.137779
-0.047316
-0.100957
-0.730565
-1.062748
-1.254475
-1.333333
-1.294811
-1.136086
-0.781676
-0.390584
-0.017454
0.236953
0.529466
0.741711
1.026189
1.107395
0.945055
0.574173
0.302003
0.079063
-0.242958
-0.609762
-1.070417
-1.224077
-1.333333
-1.333333
-1.333333
-1.008966
-0.542012
-0.093428
-0.079736
0.255705
0.634139
0.806673
1.013339
1.106414
1.07862
0.855712
0.492511
0.19799
-0.1804
-0.577287
-0.889445
-1.119105
-1.29256
-1.299763
-1.215544
-1.076159
-0.787378
-0.508629
-0.195456
0.179692
0.525895
0.804963
0.894476
0.804124
0.682477
0.582568
0.37294
0.157676
-0.113716
-0.4887
-0.826185
-1.03343
-1.18841
-1.201444
-1.121445
-0.960218
-0.56466
-0.218981
0.122371
0.479978
0.79578
0.979692
1.140057
1.132911
1.03037
0.876142
0.552134
0.207927
-0.186518
-0.521877
-0.830615
-1.094288
-1.326576
-1.333333
-1.333333
-1.248181
-0.932334
-0.583671
-0.171888
0.235417
0.567479
0.807265
1.009096
1.059881
1.011493
0.863425
0.531672
0.217571
-0.124573
-0.479544
-0.763524
-0.958866
-1.14621
-1.168917
-1.122606
-1.037221
-0.740307
-0.438446
-0.131986
0.211544
0.480577
0.687548
0.897848
0.896923
0.818921
0.692419
0.445626
0.22849
-0.105693
-0.510416
-0.812634
-1.013716
-1.186633
-1.204899
-1.127758
-0.994227
-0.64866
-0.370157
-0.076055
0.258673
0.544334
0.72417
0.934651
0.960757
0.898038
0.771956
0.44123
0.141021
-0.222818
-0.621573
-0.925759
-1.135498
-1.333333
-1.295097
-1.154759
-0.975596
-0.632908
-0.355011
-0.041838
0.341467
0.666966
0.876646
1.051174
1.062811
0.993807
0.832983
0.502616
0.22961
-0.100243
-0.445733
-0.732536
-0.939385
-1.170745
-1.194551
-1.103678
-0.960089
-0.642287
-0.347431
-0.013517
0.426994
0.78709
0.977504
1.097878
1.04137
0.912658
0.718774
0.290874
-0.076077
-0.405604
-0.785929
-1.066967
-1.235799
-1.333333
-1.333333
-1.333333
-1.228564
-0.875889
-0.556324
-0.172802
0.308039
0.662295
0.856484
1.050418
1.093898
1.062851
0.940893
0.612661
0.306943
-0.004569
-0.372916
-0.672611
-0.900531
-1.120814
-1.171316
-1.210614
-1.134415
-0.812445
-0.533954
-0.239387
0.119217
0.451884
0.782141
1.043538
1.0107
0.932861
0.779358
0.39203
0.038395
-0.268834
-0.621456
-0.935307
-1.173789
-1.333333
-1.333333
-1.328519
-1.185045
-0.819445
-0.491898
-0.15539
0.233297
0.55577
0.784283
1.026433
1.062126
1.008122
0.878164
0.552046
0.250143
-0.032941
-0.371885
-0.648497
-0.859282
-1.073219
-1.155378
-1.148161
-1.095788
-0.825344
-0.563754
-0.255525
0.124288
0.441641
0.669809
0.87588
0.899742
0.856806
0.733359
0.415686
0.209205
-0.056442
-0.374583
-0.692344
-0.928833
-1.154867
-1.186964
-1.178034
-1.084566
-0.775918
-0.461496
-0.14395
0.190624
0.510565
0.781677
1.020386
1.02872
0.997049
0.901377
0.620584
0.332711
-0.002886
-0.419908
-0.770338
-1.046722
-1.318357
-1.333333
-1.312095
-1.16526
-0.862366
-0.580145
-0.217052
0.231619
0.599247
0.835434
1.016471
1.03004
0.993486
0.881261
0.578842
0.27169
-0.057823
-0.444281
-0.778717
-1.028851
-1.251639
-1.314032
-1.307237
-1.199388
-0.879956
-0.532143
-0.189132
0.171881
0.476129
0.722582
0.887155
0.935614
0.979524
0.935197
0.619522
0.294269
-0.042769
-0.390016
-0.744868
-1.026819
-1.264575
-1.295389
-1.27515
-1.171017
-0.851744
-0.524474
-0.210167
0.173139
0.494556
0.746778
0.996664
1.083249
1.118191
1.035431
0.748482
0.409718
0.038432
-0.431741
-0.826399
-1.094278
-1.303214
-1.333333
-1.333333
-1.205154
-0.899698
-0.592602
-0.304639
0.080523
0.395517
0.710158
0.962445
1.018399
1.000149
0.934067
0.691046
0.429583
0.156022
-0.233615
-0.610386
-0.89765
-1.127456
-1.207631
-1.214633
-1.080803
-0.808617
-0.513578
-0.227213
0.157922
0.514544
0.754528
0.946381
1.000941
0.995609
0.827361
0.494888
0.187592
0.003624
-0.255922
-0.61613
-0.949507
-1.183777
-1.230157
-1.175921
-1.083811
-0.83243
-0.516184
-0.222838
0.153983
0.489638
0.74692
0.93399
1.018618
0.99101
0.874002
0.624328
0.317724
0.030213
-0.370059
-0.723086
-0.997069
-1.172752
-1.166425
-1.142896
-1.029845
-0.830193
-0.589478
-0.334542
-0.009249
0.424262
0.852207
1.090504
1.259526
1.253892
1.24653
1.050476
0.682101
0.28539
-0.166781
-0.580863
-0.939385
-1.250666
-1.333333
-1.333333
-1.330291
-1.084356
-0.710785
-0.413676
-0.039254
0.319331
0.702481
1.007714
1.181606
1.179899
1.07728
0.830476
0.47824
0.143842
-0.264023
-0.682979
-1.048749
-1.299905
-1.333333
-1.333333
-1.267206
-1.09744
-0.809676
-0.496082
-0.131506
0.301441
0.688679
0.934271
1.059353
1.050743
0.940409
0.718687
0.398522
0.12302
-0.178112
-0.499085
-0.812453
-1.029141
-1.159219
-1.162865
-1.00778
-0.721747
-0.369522
-0.101682
0.234222
0.580886
0.836792
1.000176
1.128635
1.095772
0.929332
0.689466
0.362345
0.008739
-0.326452
-0.612105
-0.858054
-1.00125
-1.076474
-1.128088
-1.075072
-0.91152
-0.53773
-0.209275
0.156307
0.44971
0.688095
0.831025
0.962018
1.027149
1.030315
0.853232
0.407074
0.038437
-0.310322
-0.735578
-1.042625
-1.08719
-1.251542
-1.333333
-1.184382
-0.88441
-0.599007
-0.33533
0.045952
0.409681
0.688127
0.859551
1.00154
0.993583
0.922968
0.811679
0.503951
0.209421
-0.145369
-0.510249
-0.835382
-1.0578
-1.20816
-1.205272
-1.087992
-0.956246
-0.505799
-0.19456
0.083369
0.41747
0.732838
0.940759
1.106069
1.113431
1.0005
0.813154
0.419741
0.072647
-0.265243
-0.641605
-0.922981
-1.085743
-1.289723
-1.290521
-1.188424
-1.063579
-0.74063
-0.419776
-0.064672
0.330232
0.675164
0.928423
1.159898
1.216222
1.177199
0.988554
0.5743
0.212784
-0.165268
-0.548419
-0.864458
-1.12838
-1.333333
-1.333333
-1.220804
-1.146552
-0.896836
-0.547681
-0.090087
0.468707
0.875696
1.047369
1.215389
1.191935
1.059879
0.943944
0.617744
0.305683
-0.048721
-0.445422
-0.795028
-1.010554
-1.188356
-1.194353
-1.163153
-1.067648
-0.794219
-0.494244
-0.075205
0.398124
0.72625
0.917708
1.082556
1.109132
1.102117
0.963051
0.573984
0.282249
-0.063836
-0.496979
-0.892101
-1.17406
-1.333333
-1.333333
-1.333333
-1.037912
-0.723727
-0.457315
-0.101199
0.281827
0.556797
0.78974
1.028121
1.087203
1.065194
0.971951
0.645439
0.3185
-0.045486
-0.410866
-0.724684
-0.969669
-1.247425
-1.292443
-1.261838
-1.156042
-0.849064
-0.516272
-0.146308
0.244052
0.629475
0.983185
1.228378
1.171379
1.078869
0.942669
0.573514
0.32495
0.038432
-0.330267
-0.65927
-0.940803
-1.210014
-1.303454
-1.263517
-1.03507
-0.658675
-0.365306
-0.066007
0.300815
0.540329
0.686488
0.930925
0.988265
0.921051
0.870286
0.505505
0.069526
-0.170472
-0.477025
-0.686785
-0.90791
-1.085038
-1.161058
-1.127367
-0.955295
-0.631727
-0.39881
-0.074189
0.427649
0.750314
0.936788
1.089729
1.102309
1.13133
1.131901
0.885446
0.513745
0.074407
-0.34723
-0.716192
-1.038141
-1.333333
-1.333333
-1.333333
-1.203452
-0.851742
-0.484985
-0.147645
0.160846
0.492948
0.84754
1.1497
1.257712
1.272259
1.111397
0.677153
0.28633
-0.047074
-0.474282
-0.815786
-1.131643
-1.333333
-1.333333
-1.264993
-1.055916
-0.740492
-0.446494
-0.150935
0.251427
0.595818
0.848816
1.088263
1.147063
1.163191
1.083584
0.825905
0.570499
0.172512
-0.237383
-0.624425
-0.929664
-1.123211
-1.078631
-0.978631
-0.864534
-0.576665
-0.309121
-0.044779
0.326438
0.610609
0.802166
1.046901
1.171135
1.132311
0.967458
0.573239
0.193673
-0.1442
-0.554386
-0.811616
-1.007674
-1.212834
-1.244092
-1.229983
-1.022501
-0.696801
-0.422949
-0.023049
0.412605
0.752488
1.128649
1.333333
1.278288
1.135973
0.961525
0.629316
0.252853
-0.102889
-0.551618
-0.919117
-1.156731
-1.302388
-1.329704
-1.264523
-1.157064
-0.826936
-0.436163
-0.062705
0.295687
0.591069
0.896435
1.200404
1.284313
1.261975
1.188471
0.864469
0.706681
0.511291
0.076294
-0.281053
-0.689287
-1.11615
-1.246789
-1.234627
-1.134063
-0.902729
-0.636091
-0.317244
0.112255
0.474257
0.731674
0.94486
1.028567
1.021411
0.926987
0.647646
0.38167
0.108261
-0.421206
-0.779154
-0.969792
-1.208107
-1.330433
-1.107965
-0.92604
-0.570667
-0.260241
0.143421
0.731879
1.085265
1.174997
1.294384
1.197739
0.924415
0.683007
0.355878
0.03602
-0.207857
-0.43347
-0.837954
-1.244532
-1.333333
-1.333333
-1.235468
-1.116055
-0.768192
-0.388506
0.047688
0.413964
0.688659
0.932065
1.098632
1.20203
1.176339
1.108278
1.001707
0.56204
0.1808
-0.210198
-0.633622
-0.920806
-1.149846
-1.216989
-1.07191
-0.868888
-0.56801
-0.195166
0.118759
0.471409
0.711326
0.953454
1.091188
1.052614
1.037619
0.992879
0.740116
0.430999
0.14421
-0.279957
-0.637471
-0.874344
-1.098401
-1.164233
-1.088492
-1.027311
-0.870427
-0.436211
-0.130085
0.162118
0.556487
0.917626
1.137459
1.259571
1.251433
0.976252
0.743545
0.581512
0.308234
-0.149204
-0.59613
-0.906265
-1.098686
-1.146766
-1.241397
-1.265897
-1.204403
-0.8284
-0.322608
0.169838
0.628011
1.040471
1.333333
1.215881
1.01906
0.935649
0.837197
0.592079
0.325873
0.097588
-0.315065
-0.614184
-0.757956
-0.890545
-0.914285
-0.895927
-0.810764
-0.690548
-0.320679
0.227324
0.531355
0.7331
0.984164
1.095
1.050761
0.917625
0.689041
0.30933
0.030004
-0.233152
-0.595763
-0.93984
-1.11451
-1.167949
-1.163029
-1.070262
-0.839997
-0.465445
-0.144481
0.129277
0.395673
0.741498
1.0148
1.247147
1.282444
1.268617
1.024598
0.629793
0.205545
-0.166881
-0.553838
-0.872897
-1.123801
-1.325712
-1.333333
-1.196579
-1.13644
-0.917417
-0.528476
-0.019042
0.640383
0.980741
1.112263
1.333333
1.225962
1.051888
0.885746
0.513138
0.186726
-0.19144
-0.554914
-0.708645
-0.729934
-0.88654
-0.899634
-0.923684
-0.852198
-0.505527
-0.167502
0.255971
0.574465
0.889071
1.218258
1.333333
1.333333
1.313314
1.161026
0.732372
0.183381
-0.349474
-0.711265
-0.987812
-1.210221
-1.333333
-1.333333
-1.215107
-0.955925
-0.545474
-0.22119
0.109584
0.48883
0.844439
1.052506
1.17696
1.111692
0.970421
0.828665
0.547685
0.330834
-0.023179
-0.469447
-0.797111
-0.92675
-1.028173
-0.928088
-0.855002
-0.662257
-0.392697
-0.292359
-0.039769
0.43072
0.897721
1.070797
1.274557
1.333333
1.333333
1.086383
0.505233
0.3272
-0.130952
-0.720572
-1.205619
-1.333333
-1.333333
-1.333333
-1.333333
-1.333333
-0.941719
-0.270547
0.457893
0.856594
1.061557
1.162852
1.327465
1.290543
1.203905
1.045449
0.701175
0.323074
-0.123679
-0.535568
-0.805544
-0.912077
-1.068338
-0.984075
-0.811692
-0.687493
-0.452394
-0.264329
0.081909
0.544276
0.80378
0.965129
1.139282
1.123959
1.026432
0.931844
0.557454
0.180303
-0.139966
-0.595649
-1.006104
-1.244115
-1.250892
-1.19111
-1.029063
-0.947756
-0.599176
-0.126357
0.413716
0.774603
0.915326
1.05527
1.270039
1.324118
1.225751
0.923535
0.439323
-0.012386
-0.452085
-0.686131
-0.594823
-0.698002
-1.046823
-1.110876
-1.007173
-0.830321
-0.431621
-0.200053
0.128257
0.663667
1.098002
1.180113
1.161422
1.18572
1.107632
0.907894
0.480625
0.157625
-0.212464
-0.576241
-0.858185
-0.950945
-1.106003
-1.102478
-1.132834
-1.180324
-0.912061
-0.601383
-0.219983
0.209206
0.567596
0.82932
1.111904
1.161445
1.237208
1.150828
0.807301
0.549195
0.393037
0.095612
-0.463045
-0.826355
-1.08869
-1.230593
-1.280506
-1.172356
-0.843
-0.534007
-0.200309
0.342815
0.797104
1.023975
1.282583
1.180095
1.170004
1.003749
0.557518
0.428614
0.095525
-0.278771
-0.594303
-0.784079
-0.966374
-0.959543
-1.02811
-0.910609
-0.38889
-0.145852
0.196123
0.462761
0.72226
0.967953
1.194013
1.237575
1.240077
1.040714
0.477127
0.200413
0.040599
-0.38914
-0.729874
-0.880073
-0.969339
-1.098795
-1.162388
-1.080685
-0.789551
-0.310923
0.295913
0.773375
1.082477
1.264491
1.333333
1.170969
0.804713
0.706496
0.432515
0.018544
-0.335794
-0.756131
-1.011894
-1.202232
-1.29142
-1.155167
-0.966729
-0.670372
-0.174506
-0.169432
-0.022825
0.316038
0.570805
0.835875
1.109108
1.172931
1.112478
0.984166
0.677322
0.351635
-0.180128
-0.795488
-1.258753
-1.333333
-1.333333
-1.333333
-1.333333
-1.333333
-1.08891
-0.36451
0.306045
0.881027
1.044789
1.146156
1.066054
1.139367
1.050089
1.064478
1.093619
0.884561
0.518208
0.042519
-0.400812
-0.74766
-1.038691
-1.170113
-1.146648
-1.118649
-0.808533
-0.448987
-0.090977
0.396294
0.796318
1.020759
1.196305
1.200752
1.204265
1.118802
0.788236
0.343466
0.039643
-0.227318
-0.582252
-0.805703
-1.083596
-1.187459
-1.084549
-0.918438
-0.674642
-0.547423
-0.371601
-0.015073
0.410414
0.798948
1.097029
1.203865
1.222854
1.189386
0.951667
0.576216
0.303786
-0.008659
-0.338031
-0.780156
-1.059215
-1.178156
-1.220113
-1.333333
-1.333333
-1.146543
-0.619544
0.016898
0.622134
0.855471
1.075155
1.333333
1.333333
1.333333
0.861604
0.176741
-0.136749
-0.350111
-0.567845
-1.000939
-1.250908
-1.265539
-1.245016
-1.164462
-0.922993
-0.658284
-0.33844
0.150629
0.550565
0.869676
1.150346
1.30192
1.195091
0.893256
0.511626
0.088426
-0.210159
-0.541158
-0.650625
-0.626426
-0.836498
-1.122248
-1.126928
-1.054098
-0.760393
-0.388663
0.097484
0.459657
0.537066
0.718885
1.009308
1.072698
0.955819
0.723182
0.456867
0.244622
0.038214
-0.290543
-0.508824
-0.668526
-0.674685
-0.622392
-0.845563
-0.974169
-0.806691
-0.45547
-0.144016
0.124925
0.547006
0.882813
1.120241
1.333333
1.333333
1.14821
0.763624
0.464498
0.354573
-0.000367
-0.346015
-0.852538
-1.169804
-1.255806
-0.944951
-0.84226
-0.657256
-0.417512
-0.034879
0.2228
0.440311
0.745368
0.95875
1.09604
1.117344
0.945289
0.794624
0.563508
0.244114
-0.064429
-0.626134
-1.092634
-1.333333
-1.333333
-1.333333
-1.013101
-0.809533
-0.526132
-0.21968
0.041986
0.418243
0.679507
0.901019
1.333333
1.19593
1.015321
0.892671
0.534633
0.0726
-0.30919
-0.615964
-0.739377
-0.823976
-1.00545
-1.023273
-0.725367
-0.523901
-0.406399
-0.151031
0.309565
0.735965
0.992848
0.974917
0.978979
1.013638
0.988874
0.845357
0.436346
0.016765
-0.320161
-0.678256
-0.940569
-0.889205
-1.026474
-1.054084
-1.08682
-0.975135
-0.51212
-0.203912
0.12257
0.66579
1.085415
1.19662
1.287269
1.333333
1.108604
0.845773
0.566332
0.315179
-0.047113
-0.446673
-0.774233
-1.057525
-1.169455
-1.131169
-0.944059
-0.76984
-0.467491
-0.092542
0.222337
0.356543
0.467799
0.720706
0.974031
1.065554
1.044981
0.878887
0.461681
0.17469
-0.036449
-0.050418
-0.477906
-0.765162
-1.033915
-1.078095
-0.970776
-0.875386
-0.562135
-0.23281
0.082079
0.464899
0.738561
0.916286
1.065293
1.10741
1.034398
0.923642
0.587599
0.118624
-0.242353
-0.507931
-0.638
-0.732177
-0.885528
-1.118534
-1.196642
-1.049992
-0.672696
-0.186971
0.020296
0.38465
0.672505
0.740558
0.966831
1.03587
1.226919
0.98234
0.544748
0.205807
-0.175737
-0.502301
-0.779147
-0.928569
-1.044414
-0.975711
-0.928211
-0.773373
-0.462998
-0.241805
0.116179
0.536957
0.800458
0.96464
1.170295
1.237934
1.198675
1.012507
0.779638
0.45334
0.111096
-0.323598
-0.656517
-0.911186
-1.131785
-1.256709
-1.261922
-1.016107
-0.694282
-0.324521
0.0237
0.477541
0.933102
1.202775
1.333333
1.333333
1.333333
1.054342
0.505989
0.245472
0.024654
-0.456433
-0.800694
-1.052351
-1.306855
-1.239958
-1.014052
-0.849727
-0.532188
-0.242841
-0.022551
0.346253
0.701739
0.89274
1.048144
1.135643
1.046538
0.911665
0.66578
0.48073
0.17716
-0.059615
-0.425317
-0.705973
-1.16882
-1.333333
-1.297387
-0.852281
-0.560499
-0.352729
-0.021453
0.387157
0.745634
1.088518
1.333333
1.333333
1.333333
1.053557
0.494747
0.027855
-0.386549
-0.840499
-1.126549
-1.333333
-1.333333
-1.333333
-1.226785
-0.827251
-0.295051
-0.10291
0.06289
0.374085
0.722061
1.019741
1.292607
1.333333
1.333333
1.065474
0.527164
0.092646
-0.253873
-0.646758
-0.770405
-1.035919
-1.296416
-1.240309
-1.082166
-0.931733
-0.580481
-0.207936
0.187891
0.590887
1.028099
1.295608
1.333333
1.333333
1.320089
1.192681
0.913909
0.614988
0.30421
-0.159489
-0.616948
-0.895268
-1.055873
-1.051557
-0.991522
-0.892113
-0.593639
-0.303249
0.033256
0.331249
0.606521
0.938102
1.18814
1.223641
1.207056
1.078232
0.771329
0.479005
0.209242
-0.093417
-0.354906
-0.811612
-1.195024
-1.232066
-1.184397
-0.979854
-0.589052
-0.291917
0.053223
0.42373
0.865829
1.158307
1.266432
1.125265
1.020286
0.824192
0.45339
0.173545
-0.015319
-0.336631
-0.70526
-1.111568
-1.333333
-1.333333
-1.068574
-0.681163
-0.373518
-0.255464
0.050816
0.416881
0.829864
1.125933
1.333333
1.333333
1.333333
1.090089
0.68296
0.295986
0.035234
-0.391821
-0.776786
-1.144707
-1.333333
-1.333333
-1.333333
-1.052148
-0.680696
-0.460032
-0.177239
0.334707
0.792324
1.179184
1.333333
1.333333
1.213076
1.03291
0.733025
0.39752
0.099108
-0.260217
-0.615538
-0.911459
-1.130988
-1.06482
-0.995282
-0.945834
-0.781413
-0.409742
-0.017571
0.409966
0.795011
1.107031
1.333333
1.333333
1.325282
1.316178
1.131476
0.632456
0.241129
-0.221011
-0.606119
-0.929332
-1.080259
-1.142164
-1.246541
-1.136258
-0.894268
-0.647239
-0.26683
0.113358
0.484208
0.825943
1.18148
1.333333
1.333333
1.333333
1.333333
0.80972
0.174754
-0.173814
-0.566761
-1.019756
-1.333333
-1.333333
-1.30237
-1.140752
-0.808269
-0.475633
-0.127235
0.322375
0.693762
0.978001
1.199619
1.269533
1.229436
1.117687
0.86653
0.600787
0.290814
-0.183287
-0.627828
-0.942042
-1.176195
-1.245732
-1.198299
-1.011626
-0.702662
-0.277976
0.029388
0.429709
0.780052
1.033939
1.19434
1.262358
1.325407
1.306599
1.135741
0.9296
0.514455
0.067144
-0.356243
-0.78193
-1.202114
-1.333333
-1.280423
-1.131726
-0.855723
-0.509425
-0.198057
0.169082
0.528784
0.828529
1.050775
1.155905
1.144736
1.100191
0.963013
0.723263
0.338118
-0.164643
-0.606096
-0.811002
-0.94778
-0.99181
-0.99822
-0.976391
-0.746253
-0.431457
-0.106138
0.283726
0.590135
0.893601
1.17391
1.333333
1.333333
1.274045
1.03178
0.680892
0.324766
-0.142024
-0.606045
-0.981738
-1.203228
-1.305078
-1.271962
-1.156077
-0.870878
-0.557406
-0.216089
0.15191
0.524097
0.840035
1.07998
1.30868
1.333333
1.333333
1.317051
0.843104
0.367618
-0.02385
-0.366169
-0.676034
-0.979971
-1.150535
-1.198231
-1.200482
-0.977933
-0.558955
-0.256495
0.166315
0.610806
0.975365
1.215401
1.269803
1.20605
1.2775
1.012725
0.655868
0.302065
-0.148827
-0.579459
-0.917495
-1.179372
-1.213614
-1.220213
-1.164637
-0.927722
-0.543339
-0.124032
0.332219
0.642535
0.906108
1.202508
1.320112
1.333333
1.333333
1.25559
0.809096
0.356871
-0.06616
-0.412864
-0.729607
-0.934784
-1.016171
-0.977325
-0.921282
-0.839802
-0.602624
-0.347888
0.014439
0.500565
0.892334
1.135507
1.333333
1.333333
1.230454
1.0339
0.658094
0.338603
-0.022524
-0.397493
-0.686391
-0.897447
-1.145077
-1.193866
-1.078098
-0.817296
-0.458388
-0.1141
0.314033
0.782151
1.129619
1.333333
1.333333
1.333333
1.177918
0.897985
0.640931
0.306191
-0.164271
-0.613457
-0.898065
-0.999486
-1.095548
-1.226898
-1.178152
-1.023054
-0.655277
-0.32811
-0.034922
0.331642
0.717508
0.946319
1.270571
1.333333
1.333333
1.071925
0.637741
0.461574
0.224209
-0.320612
-0.707054
-0.937798
-1.148166
-1.082675
-0.965667
-0.855981
-0.450721
-0.181862
0.061845
0.48993
0.850522
1.112783
1.306767
1.333333
1.233515
0.93529
0.42526
0.077131
-0.130211
-0.271768
-0.287981
-0.640807
-0.905972
-0.995005
-0.972412
-0.860319
-0.510792
-0.140649
0.218252
0.616162
0.844258
0.998927
1.162756
1.103495
1.016467
0.894269
0.577995
0.293899
-0.023261
-0.402007
-0.769069
-1.039832
-1.194505
-1.29029
-1.179973
-0.977764
-0.530759
-0.20021
0.222918
0.546513
0.847461
1.056924
1.299598
1.265949
1.126571
1.01707
0.676661
0.325739
0.08689
-0.360531
-0.819583
-1.103774
-1.289865
-1.333333
-1.207282
-1.01497
-0.570063
-0.342042
-0.054397
0.535861
1.196043
1.319747
1.255161
1.16649
1.065316
0.927945
0.552304
0.256747
0.014573
-0.519595
-0.924007
-1.178808
-1.278251
-1.333333
-1.333333
-1.24121
-0.669907
-0.129458
0.01681
0.270261
0.857398
1.333333
1.333333
1.259277
1.040742
1.084328
0.871012
0.69076
0.356566
-0.112667
-0.466353
-0.794321
-1.109503
-1.102793
-1.03104
-1.012801
-0.690096
-0.284371
-0.007931
0.380796
0.80112
1.15423
1.333333
1.333333
1.21062
0.940944
0.578967
0.241872
-0.025907
-0.37308
-0.692034
-0.882022
-1.084264
-1.062146
-0.897995
-0.858879
-0.59053
-0.176869
0.175071
0.569996
0.84023
0.987853
1.241683
1.29341
1.17847
0.936901
0.591166
0.366289
0.110029
0.047372
-0.221966
-0.728955
-0.973686
-1.201333
-1.258711
-1.222157
-0.964196
-0.654444
-0.24971
0.22744
0.804453
1.134369
1.257378
1.331146
1.190225
1.033068
0.636308
0.256359
-0.084487
-0.558884
-0.971923
-1.162482
-1.333333
-1.333333
-1.333333
-1.21041
-0.433304
0.185
0.614971
0.73697
0.843707
1.147144
1.294177
1.333333
1.252032
0.957626
0.658233
0.331552
0.081087
-0.149324
-0.439237
-0.521276
-0.853498
-1.019584
-1.121908
-0.969113
-0.587275
-0.276371
-0.023439
0.253464
0.57575
0.824581
1.108831
1.218907
1.333333
1.285551
0.871484
0.523058
0.257448
-0.20967
-0.596386
-0.798961
-0.982833
-1.037601
-1.098537
-1.070714
-0.861239
-0.603267
-0.305056
0.086699
0.413441
0.680952
0.904276
1.045618
1.032837
1.01828
0.635599
0.338269
0.237331
0.145695
-0.223247
-0.679197
-0.898966
-1.122051
-1.210526
-1.239465
-0.875978
-0.641822
-0.274132
0.455956
0.775741
0.979332
1.204084
1.222983
1.236835
1.053037
0.751373
0.378093
0.014266
-0.462767
-0.795702
-0.935441
-1.130814
-1.333333
-1.270788
-0.495197
-0.160153
-0.327943
-0.02588
0.255508
0.481525
0.74277
1.07892
1.260691
1.333333
1.333333
1.006024
0.702687
0.48763
0.155241
-0.16815
-0.508589
-0.82795
-1.03368
-1.152339
-1.090634
-0.954237
-0.69811
-0.310261
0.176453
0.594376
0.860506
1.085577
1.150791
1.154619
1.111574
0.837445
0.50728
0.263014
-0.119386
-0.435853
-0.734215
-0.994783
-1.113894
-1.10894
-0.992351
-0.745549
-0.408723
-0.085452
0.273598
0.556545
0.68437
0.84862
1.102681
1.276059
1.181754
0.798138
0.334882
0.167665
-0.320404
-0.597224
-0.813679
-1.091249
-1.19244
-1.059303
-0.983739
-0.757103
-0.415051
0.046259
0.273751
0.480917
0.67323
0.74778
0.760073
0.722695
0.579335
0.374728
0.24344
-0.015999
-0.303243
-0.760495
-0.970409
-0.449562
-0.690106
-0.985894
-0.743778
-0.836639
-0.53175
-0.065394
0.352207
0.770238
1.049456
1.24648
1.309523
1.246523
1.226713
1.036396
0.735989
0.463046
0.027461
-0.391881
-0.716714
-0.935755
-1.107205
-1.252929
-1.214034
-0.848821
-0.222961
-0.119672
0.159692
0.491978
0.784391
0.994318
1.139439
1.247975
1.209342
0.974783
0.654051
0.348633
-0.008714
-0.4006
-0.762871
-1.059133
-1.235861
-1.219929
-1.148538
-1.025759
-0.742752
-0.46142
-0.084851
0.290618
0.560205
0.858682
1.315664
1.333333
1.333333
1.214476
0.759313
0.407284
0.048455
-0.410002
-0.893292
-1.262589
-1.333333
-1.333333
-1.274115
-1.066021
-0.555497
-0.139187
0.11668
0.280962
0.467612
0.504897
0.633044
0.945581
0.950124
0.883883
1.333333
1.007178
0.445926
0.02053
-0.69688
-1.164836
-1.333333
-1.203213
-0.90426
-0.642388
-0.231936
0.096688
0.491514
0.903524
1.197474
1.333333
1.333333
1.333333
1.296166
0.943376
0.388654
-0.039624
-0.426725
-0.806055
-1.112497
-1.333333
-1.333333
-1.333333
-1.140281
-0.809084
-0.412585
-0.124311
0.238129
0.618983
0.937183
1.15697
1.333333
1.331881
1.19569
0.967331
0.545507
0.175747
-0.214779
-0.678153
-0.998411
-1.177948
-1.333333
-1.333333
-1.224857
-0.953822
-0.461946
-0.09391
0.017472
0.309979
0.600567
1.141198
1.333333
1.333333
1.333333
1.316473
0.564537
-0.064633
-0.624625
-0.91421
-1.020979
-1.040455
-1.130765
-0.876908
-0.681975
-0.801214
-0.699438
-0.566671
-0.272914
0.122878
0.498285
0.710248
1.033401
1.333333
1.333333
1.312665
0.713753
0.184392
-0.130448
-0.115028
-0.277844
-0.874146
-1.204344
-1.167417
-1.061848
-0.91929
-0.440284
0.037432
0.368712
0.74175
1.051932
1.252714
1.333333
1.333333
1.191962
1.012973
0.61269
0.26313
-0.107444
-0.530053
-0.856755
-1.072026
-1.283593
-1.298598
-1.201654
-1.098778
-0.758965
-0.495693
-0.224027
0.329233
0.932697
1.175138
1.294056
1.261513
1.208972
1.08115
0.649385
0.223633
-0.177785
-0.599748
-0.958512
-1.158071
-1.115089
-0.86017
-0.61856
-0.551647
-0.585306
-0.165679
-0.049509
0.491672
0.695265
0.918533
1.243587
1.152512
0.976339
0.764132
0.562129
0.199635
-0.136114
-0.412573
-0.722277
-1.003469
-1.333333
-1.333333
-1.333333
-1.260325
-0.784914
-0.075569
0.850099
1.103965
0.813344
0.808745
1.015406
1.186214
1.249558
1.058624
0.812661
0.53883
0.037893
-0.406966
-0.674182
-0.806898
-1.037446
-1.069745
-1.027134
-0.899241
-0.531153
-0.184482
0.182315
0.650073
0.928515
0.999706
1.078541
1.117228
1.12587
1.015626
0.649896
0.368838
0.039763
-0.440608
-0.773563
-1.063197
-1.333333
-1.291354
-1.134217
-1.019959
-0.719773
-0.295124
0.14718
0.53643
0.818145
1.012625
1.23558
1.190144
1.106627
0.980769
0.671346
0.370278
0.090557
-0.242277
-0.563803
-0.776748
-0.905416
-0.961475
-1.097304
-1.105347
-0.721613
-0.311944
-0.020816
0.387703
0.762912
0.851634
0.833834
0.912398
1.139427
1.138994
0.630076
0.460148
0.115569
-0.336634
-0.928912
-1.264319
-1.278043
-1.262492
-1.10254
-1.077063
-1.10581
-0.963784
-0.47731
0.160863
0.864243
1.321562
1.333333
1.333333
1.206171
0.803531
0.536235
0.282958
0.060038
-0.301299
-0.625757
-0.855103
-1.169582
-1.286143
-1.208287
-1.040871
-0.756423
-0.49028
-0.06138
0.371492
0.604476
0.840223
1.223093
1.333333
1.333333
1.293809
0.99328
0.74381
0.375046
-0.114097
-0.537949
-0.79387
-1.060454
-1.120914
-1.108424
-1.018394
-0.716854
-0.42324
-0.127634
0.310388
0.670446
0.869743
0.96656
0.933588
0.895734
0.815134
0.571266
0.446757
0.183531
-0.037436
-0.397901
-0.937465
-1.301845
-1.291238
-1.333333
-1.18278
-0.80863
-0.374724
0.027508
0.337595
0.596091
0.848164
1.098316
1.271822
1.331822
1.174777
0.703945
0.115981
-0.225472
-0.409155
-0.537937
-0.648897
-0.993987
-1.051373
-1.000651
-1.333333
-1.180778
-0.664771
-0.197396
0.204344
0.756013
1.033356
1.220014
1.237769
1.206263
1.087142
0.828559
0.506059
0.159797
-0.292058
-0.702349
-1.058843
-1.333333
-1.333333
-1.333333
-1.266905
-0.903152
-0.351222
0.028746
0.368239
0.55419
0.815596
1.284334
1.333333
1.333333
1.235368
0.73364
0.549806
0.386262
-0.020765
-0.393005
-0.67539
-0.921935
-1.041996
-1.035528
-0.918751
-0.709357
-0.433208
-0.193305
0.190881
0.497851
0.774265
1.023971
1.260896
1.333333
1.124857
0.742497
0.321977
0.069283
-0.299903
-0.682129
-1.010228
-1.229829
-1.333333
-1.333333
-1.242081
-0.964072
-0.649641
-0.317327
0.179829
0.599686
0.760737
0.797758
0.919663
1.085913
0.86759
0.737641
0.704861
0.280082
-0.062056
-0.424712
-0.66005
-1.030375
-1.281781
-1.288579
-1.247022
-1.033713
-0.692873
-0.370828
-0.017722
0.377813
1.042306
1.327047
1.084322
1.102247
1.022011
0.865127
0.543014
0.441637
-0.189044
-0.618938
-0.751302
-0.976218
-1.320014
-1.333333
-1.333333
-0.827884
-0.47682
-0.122549
0.252498
0.561367
0.87154
1.071273
1.194729
1.183526
1.113067
0.965704
0.586729
0.250229
-0.132976
-0.533696
-0.858988
-1.070226
-1.243697
-1.267031
-1.186082
-0.990155
-0.65065
-0.222754
0.212382
0.570115
0.92771
1.188243
1.330781
1.236203
1.132451
0.982178
0.67216
0.400853
0.034863
-0.360641
-0.739419
-0.959901
-1.22264
-1.333333
-1.333333
-1.124515
-0.745707
-0.399636
0.029439
0.258649
0.258223
0.618621
0.946697
1.014405
1.083738
0.804072
0.391276
0.119009
-0.243051
-0.621388
-0.919387
-1.183414
-1.315311
-1.286222
-1.296462
-1.094381
-0.796953
-0.62226
-0.039585
0.424986
0.55997
0.833483
1.184554
1.333333
1.297643
1.13193
0.52912
-0.064363
-0.455015
-0.767459
-0.714931
-0.663767
-0.800635
-1.095192
-1.08742
-0.954035
-0.743747
-0.487109
-0.123576
0.300476
0.700325
0.970051
1.080199
0.978555
0.840864
0.829298
0.657445
0.286104
-0.124219
-0.420227
-0.635655
-0.826329
-1.061121
-1.134646
-1.073911
-1.006178
-0.657608
-0.268495
0.088199
0.385426
0.607561
0.938145
1.12042
1.233391
1.25914
1.060824
0.594146
0.247161
-0.018191
-0.299091
-0.567319
-0.858891
-1.055469
-1.020151
-0.992198
-0.849708
-0.533646
-0.313062
-0.200481
-0.011542
0.147668
0.437209
0.793132
1.333333
1.333333
0.978062
0.205075
-0.058935
-0.237725
-0.431511
-0.701289
-0.904629
-1.280923
-1.333333
-1.220266
-1.038777
-0.597222
-0.357519
-0.017804
0.409902
0.697028
0.854203
0.965276
1.027593
1.012439
0.736909
0.347467
0.250851
-0.018668
-0.156546
-0.355896
-0.23015
-1.037858
-1.333333
-1.203854
-0.87959
-0.740041
-0.522223
-0.135093
0.292132
0.546084
0.787886
0.955115
0.998645
1.021932
1.013879
0.686973
0.343386
0.015617
-0.413712
-0.823249
-1.156595
-1.333333
-1.333333
-1.333333
-1.30518
-0.770033
-0.346361
-0.143229
0.69446
1.333333
1.310643
0.979968
0.779585
0.946268
0.885007
0.660407
0.271402
-0.0468
-0.519327
-0.811789
-0.872638
-1.015646
-1.068216
-1.094818
-1.065947
-0.713372
-0.299444
0.172797
0.424443
0.668496
0.830508
0.998552
0.944092
0.91292
0.890657
0.529976
0.410801
0.258838
-0.148636
-0.402724
-0.942408
-1.240138
-1.280962
-1.195932
-1.002503
-0.61152
-0.335809
-0.091707
0.266621
0.561296
0.823255
1.049074
1.10251
1.119887
1.032479
0.770888
0.483478
0.149349
-0.272495
-0.623287
-1.054953
-1.333333
-1.333333
-1.333333
-1.333333
-1.048676
-0.196502
0.611103
1.221499
0.478939
0.541948
0.596244
0.673046
0.750985
0.858086
0.501579
0.474848
0.06066
-0.534067
-0.841854
-1.049474
-1.124816
-1.143123
-1.093626
-1.117299
-0.838573
-0.444462
-0.143691
0.12117
0.365733
0.507817
0.983559
1.314144
1.333333
1.125534
0.455774
0.078052
-0.149137
-0.503883
-0.509002
-0.502952
-1.113445
-1.333333
-1.249281
-0.849633
-0.458975
-0.222386
-0.095774
0.050786
0.406728
0.813224
1.269998
1.124017
0.883837
1.021728
0.817163
0.729391
0.520742
-0.139452
-0.669729
-1.030007
-1.271268
-1.329385
-1.111551
-0.743905
-0.647265
-0.706108
-0.426266
0.200681
0.667982
0.735419
1.120608
1.182649
0.96672
0.856774
0.604063
0.333615
0.008725
-0.378196
-0.740999
-1.058575
-1.287446
-1.333333
-1.333333
-1.304178
-1.025796
-0.692203
-0.233075
0.340925
0.412968
0.559746
1.333333
1.092438
1.026723
0.961314
0.468267
0.360678
0.229316
-0.31769
-0.817338
-0.636595
-1.15433
-1.237568
-1.333333
-1.333143
-0.994673
-0.64499
-0.092229
0.335191
0.430931
0.776891
1.14182
0.665675
0.80594
1.109269
1.096096
0.104977
-0.4982
-0.522393
-0.694665
-0.170534
-0.04631
-1.154742
-1.333333
-1.333333
-1.121435
-0.757907
-0.431402
0.058327
0.538939
0.996256
1.167163
1.111004
1.018658
0.726871
0.446073
0.127525
-0.149812
-0.218226
-0.563489
-0.600169
-1.008132
-1.264696
-1.333333
-1.232033
-0.58894
-0.361868
-0.288144
-0.029121
0.320579
0.477744
0.68581
0.967248
1.031185
0.897745
1.333333
0.709119
0.215381
-0.273442
-0.747665
-1.010157
-1.145595
-1.326793
-1.333333
-1.277135
-0.829293
-0.497797
-0.682709
-0.199159
0.1858
0.231029
1.333333
1.149514
0.796515
0.600865
0.460899
0.574145
0.382372
-0.556334
-0.681369
-0.931399
-1.333333
-1.263038
-0.549183
-0.943953
-0.90164
-0.276741
-0.232416
-0.165465
0.420526
1.026954
1.049647
1.103393
1.261321
1.144174
1.006944
0.650577
0.1359
-0.299495
-0.684927
-1.030338
-1.088854
-0.926625
-1.13837
-1.158077
-0.964986
-0.58429
-0.204519
0.444982
0.479486
0.56426
0.87083
1.054824
1.092
1.091048
0.878378
0.378418
0.00038
-0.417694
-0.896317
-1.202869
-1.333333
-1.333333
-0.925854
-1.012445
-1.104902
-0.648094
-0.113565
0.230915
0.330459
0.486054
0.420076
0.487271
0.539267
0.070959
0.269889
0.160813
-0.849315
-0.607014
-1.103394
-0.733063
-0.373506
-0.876321
-1.222756
-0.802739
-1.255313
-0.969828
-0.512935
0.013329
0.054556
0.21313
-0.10837
-0.217386
0.89981
1.333333
1.333333
0.754893
-0.789176
-0.394283
-0.043868
-0.144571
-0.929765
-0.818726
-1.333333
-1.333333
-1.333333
-1.273738
-1.035996
-0.466518
1.101117
1.145255
1.253056
1.333333
1.333333
1.18613
0.926239
0.61981
0.443722
0.062865
-0.441149
-0.768745
-0.951936
-1.215821
-1.288596
-1.156597
-0.878343
-0.554363
-0.340315
-0.290363
0.113884
0.389912
0.561654
0.884934
0.714083
0.497709
0.568377
0.700318
0.229384
-0.18673
-0.503182
-1.027369
-1.333333
-1.333333
-1.333333
-1.167134
-1.183315
-1.051589
-0.793191
-0.425146
0.187542
0.730471
0.980251
0.871051
0.91488
0.606718
0.887326
1.251839
0.237672
-0.82055
-1.302682
-1.333333
-1.251554
-0.541653
-1.333333
-1.333333
-1.333333
-1.091709
-0.490143
-1.086024
-1.333333
-0.334987
1.095064
1.333333
1.333333
0.697239
0.402299
-0.155105
-0.298671
-0.572372
-0.897084
-0.194022
-0.257871
-0.952178
-0.993965
-1.148457
-1.189652
-0.976704
-0.690755
-0.415548
0.672641
1.19277
0.981109
0.993894
1.134117
1.078625
1.155838
0.832523
0.300481
-0.141809
-0.380806
-0.699609
-1.1094
-1.333333
-1.333333
-1.333333
-1.234607
-0.9297
-0.68112
-0.414611
0.254806
1.245593
1.189937
1.215367
1.144124
1.085477
0.739994
0.22888
-0.258356
-0.485417
-1.192814
-1.333333
-1.333333
-0.995977
-0.812678
-1.333333
-1.333333
-0.947842
-0.998437
-0.131353
0.807729
0.367292
0.44123
1.084243
0.845238
0.907763
1.034451
0.579007
0.320147
0.071349
-0.497091
-0.97321
-1.273328
-1.333333
-1.333333
-1.333333
-1.156794
-0.785125
-1.193579
-1.333333
-1.333333
-0.655106
1.333333
1.333333
1.333333
0.928924
0.804929
0.352584
-0.168242
-0.461387
-0.877568
-0.668785
-0.747038
-1.333333
-1.333333
-1.333333
-1.320301
-0.96738
-0.605441
-0.206887
0.428607
0.947884
1.167019
0.815175
0.935612
0.982152
0.888863
0.686005
0.387981
-0.209637
-0.456745
-0.929276
-1.286999
-1.333333
-1.333333
-1.267781
-1.098305
-0.720978
-0.250662
-0.230292
0.300044
0.922541
1.027771
0.967832
0.683707
0.710427
0.615966
0.652621
0.157431
-0.442771
-0.977215
-1.333333
-1.333333
-1.333333
-0.609544
0.231978
-0.959622
-1.114366
-0.951988
-0.681863
0.03315
0.632611
1.313617
1.291095
0.777062
0.4567
0.328605
0.240744
0.342882
-0.069098
-0.570944
-0.997137
-1.333333
-1.333333
-0.913943
-0.824531
-1.017435
-1.12651
-0.81815
-0.27961
0.629724
0.957068
0.601974
0.732537
0.774214
0.982283
1.029888
0.493172
-0.169551
-0.719842
-0.794138
-0.669015
-0.23845
-0.620959
-1.333333
-1.333333
-1.232897
-0.536029
-0.291136
-0.340516
0.07655
0.438583
0.661533
0.890423
1.028812
1.004727
0.879498
0.613909
0.319287
-0.055047
-0.494131
-0.887266
-1.150858
-1.275854
-1.333333
-1.333333
-1.124779
-0.975034
-0.521381
-0.138887
0.100194
0.463509
0.707164
0.828889
0.848045
0.784662
0.777229
0.783906
0.526959
-0.041185
-0.530189
-0.92738
-1.264654
-1.333333
-1.079428
-1.241456
-1.260374
-1.333333
-1.232208
-1.287021
-0.546012
0.872084
0.301958
0.660255
1.264042
1.333333
1.333333
0.647203
0.22157
0.066587
-0.349789
-0.622125
-0.805258
-1.283434
-1.333333
-1.333333
-1.153714
-1.126288
-1.22771
-0.620137
0.238181
0.720883
0.914954
1.226194
0.985009
1.024606
1.088061
0.769425
0.311419
-0.073973
-0.314615
-0.713161
-1.011039
-1.193919
-1.257406
-1.206968
-1.072874
-0.811233
-0.546961
-0.250058
0.152326
0.443251
0.684838
0.932932
1.03118
0.813229
0.531745
0.338687
-0.085549
-0.047246
0.342515
-0.58207
-1.197568
-1.077503
-1.270015
-1.290971
-1.107865
-0.655573
-0.485547
-0.320506
0.045646
0.41321
0.707293
0.921674
1.071337
1.06241
0.925977
0.624041
0.231114
-0.132843
-0.684061
-1.158081
-1.288733
-1.181678
-1.147782
-0.907635
-1.274824
-0.842033
-0.082759
-0.373349
-0.297506
0.189467
0.718435
1.078451
1.188039
1.121419
0.988881
0.7503
0.386912
0.036187
-0.35982
-0.829353
-1.186191
-1.333333
-1.333333
-1.333333
-1.333333
-1.333333
0.01836
0.260601
0.725575
0.652327
0.642812
0.799195
0.769315
0.796042
0.810041
1.333333
0.744502
0.105434
-0.330495
-0.356283
-0.839709
-1.105472
-1.216328
-1.236075
-1.248365
-1.036416
-0.642434
-0.305722
0.090635
0.425284
0.642004
0.77797
0.892432
0.883616
0.929727
0.92927
0.683101
0.11878
-0.269357
-0.588389
-0.951268
-1.140644
-1.25443
-1.300504
-1.201933
-1.01951
-0.650308
-0.300418
0.045056
0.39969
0.694416
0.882492
1.046345
1.044028
0.960723
0.825158
0.547681
0.252666
-0.116931
-0.520534
-0.851524
-1.059946
-1.211669
-1.241694
-1.191609
-1.057244
-0.769517
-0.469561
-0.110834
0.224362
0.435696
0.576524
0.973144
1.193151
0.971886
0.696159
0.380689
0.137483
-0.171197
-0.47556
-0.786863
-1.045482
-1.333333
-1.333333
-1.333333
-1.333333
-1.038622
-0.179518
-0.07751
0.306389
0.603508
0.838882
1.333333
1.333333
1.010493
0.826935
0.433506
0.255356
-0.089585
-0.465311
-0.707275
-0.867463
-1.092602
-1.15554
-1.07752
-0.961137
-0.645882
-0.326833
0.0523
0.404396
0.726663
0.914035
1.108656
1.073354
0.996524
0.746477
0.522962
0.232348
-0.139376
-0.610841
-0.992249
-1.184297
-1.300407
-1.302367
-1.214035
-1.080809
-0.729701
-0.436007
-0.096205
0.280827
0.614661
0.86992
1.101356
1.113888
1.011214
0.80568
0.44503
0.151262
-0.127432
-0.418111
-0.691355
-0.866975
-1.173862
-1.304373
-1.308336
-1.194331
-0.803922
-0.402159
-0.078824
0.275454
0.514186
0.698368
0.913476
0.932375
0.867369
0.766554
0.470055
0.224177
-0.135854
-0.515025
-0.759961
-0.961643
-1.147073
-1.166697
-1.104744
-0.963694
-0.634759
-0.347303
-0.038601
0.327326
0.640476
0.864485
1.068551
1.10019
0.93898
0.760574
0.49581
0.19696
-0.094159
-0.335098
-0.540607
-0.894124
-1.194585
-1.11405
-1.134946
-1.083352
-0.724145
-0.417028
-0.12486
0.220958
0.488052
0.700911
0.924755
0.966296
0.888802
0.703342
0.377832
0.10928
-0.199942
-0.648268
-1.048115
-1.27433
-1.333333
-1.333333
-1.094856
-0.942128
-0.702182
-0.39157
-0.194819
0.357257
0.546484
0.740603
1.049628
1.119687
1.048347
0.974779
0.650882
0.317719
-0.020573
-0.389993
-0.699494
-0.961025
-1.184669
-1.211586
-1.153338
-1.017371
-0.67675
-0.360116
-0.041383
0.324822
0.661746
0.905888
1.128726
1.141064
1.086117
0.97411
0.669307
0.332942
-0.053656
-0.447328
-0.780476
-1.025815
-1.288845
-1.333333
-1.332347
-1.202636
-0.857362
-0.520799
-0.182064
0.248546
0.584961
0.839613
1.123471
1.158567
1.117449
1.024046
0.70041
0.343153
-0.034952
-0.462294
-0.81613
-1.027487
-1.230225
-1.268823
-1.262343
-1.224888
-1.015829
-0.727734
-0.354175
0.113016
0.456916
0.689877
0.935849
1.013128
1.009005
0.902372
0.603712
0.314583
0.0064
-0.359991
-0.675699
-0.947431
-1.192692
-1.256594
-1.234011
-1.114138
-0.833684
-0.520643
-0.245357
0.083993
0.432115
0.70194
0.923235
0.946618
0.885473
0.752387
0.496914
0.263916
0.009291
-0.345215
-0.652439
-0.859169
-1.064834
-1.102777
-1.071236
-0.949657
-0.682155
-0.402626
-0.074977
0.383606
0.766523
1.034893
1.286745
1.316805
1.17961
0.934845
0.521138
0.131383
-0.243793
-0.643925
-0.977637
-1.200878
-1.333333
-1.333333
-1.333333
-1.216192
-0.938306
-0.597293
-0.258056
0.13678
0.484255
0.745689
0.974153
1.029113
1.016052
0.909956
0.658829
0.373009
0.076425
-0.288828
-0.629854
-0.939191
-1.19408
-1.306263
-1.278573
-1.139555
-0.859775
-0.548087
-0.268783
0.101315
0.440397
0.72228
0.933625
1.000843
0.964599
0.805034
0.513094
0.21173
-0.048789
-0.382672
-0.683648
-0.952465
-1.18577
-1.252196
-1.228556
-1.137545
-0.881284
-0.566359
-0.26497
0.108441
0.451761
0.713008
0.896354
0.921275
0.940905
0.887998
0.670108
0.369347
0.086327
-0.262244
-0.608957
-0.899729
-1.126727
-1.247577
-1.267644
-1.219987
-1.035335
-0.72732
-0.39791
0.041726
0.432988
0.696868
0.883654
0.989125
1.013391
0.940133
0.702954
0.390074
0.075538
-0.261501
-0.573619
-0.845056
-1.047972
-1.146928
-1.138533
-1.057847
-0.849201
-0.553204
-0.25272
0.114541
0.482191
0.785916
0.985292
1.099271
1.080509
0.932585
0.703549
0.432957
0.200862
-0.194475
-0.57779
-0.873772
-1.134929
-1.292021
-1.299122
-1.230675
-1.047774
-0.769464
-0.476108
-0.078082
0.343225
0.705795
0.933569
1.040604
1.03182
0.96271
0.760387
0.417433
0.101392
-0.251257
-0.628016
-0.933959
-1.160627
-1.331917
-1.314467
-1.227099
-1.039455
-0.600315
-0.175776
0.210207
0.516897
0.786955
1.055451
1.285966
1.304876
1.1596
0.926045
0.574244
0.259869
-0.184989
-0.611307
-0.941779
-1.204908
-1.333333
-1.333333
-1.307945
-1.093471
-0.714731
-0.377158
0.009296
0.382122
0.700106
0.912067
1.056865
1.092389
1.035839
0.890023
0.54775
0.219295
-0.145996
-0.50446
-0.815958
-1.027921
-1.174261
-1.177296
-1.077169
-0.896974
-0.554814
-0.246624
0.09984
0.438142
0.738056
0.917007
1.034424
0.975262
0.865988
0.722278
0.478421
0.225989
-0.15219
-0.593753
-0.964704
-1.215582
-1.333333
-1.333333
-1.239319
-1.072843
-0.694219
-0.309693
0.065472
0.441536
0.794452
1.026232
1.194587
1.215645
1.149278
0.949192
0.533007
0.192883
-0.186308
-0.592035
-0.884766
-1.065576
-1.221722
-1.281748
-1.240491
-1.100585
-0.735968
-0.396103
-0.045047
0.380273
0.701587
0.942569
1.144622
1.165979
1.108871
0.953061
0.586249
0.271147
-0.083972
-0.486897
-0.802479
-1.01173
-1.188651
-1.214753
-1.1325
-0.990802
-0.639986
-0.30295
0.066036
0.451903
0.748809
0.946747
1.140783
1.14724
1.053915
0.923488
0.572116
0.243285
-0.151043
-0.549847
-0.797463
-0.949837
-1.165875
-1.198761
-1.10736
-0.945205
-0.615294
-0.335143
-0.004818
0.352587
0.63185
0.823065
1.016042
1.060961
1.11044
1.035235
0.65021
0.340711
-0.035259
-0.423842
-0.74115
-0.961627
-1.143579
-1.16502
-1.113753
-0.979723
-0.62563
-0.32604
0.020193
0.447729
0.766679
0.963753
1.138033
1.14403
1.068266
0.877136
0.487841
0.194636
-0.090869
-0.456503
-0.779748
-1.011891
-1.234236
-1.316069
-1.333333
-1.224394
-0.828522
-0.468871
-0.086165
0.304911
0.643559
0.916117
1.199368
1.289772
1.218823
1.063037
0.650414
0.29701
-0.038497
-0.423676
-0.689333
-0.886445
-1.12476
-1.155653
-1.14054
-1.030838
-0.678914
-0.367071
-0.063128
0.323912
0.730892
1.008529
1.204684
1.223564
1.182088
1.049244
0.674972
0.36182
0.050074
-0.373101
-0.721318
-0.971016
-1.169642
-1.184694
-1.158085
-1.031149
-0.688429
-0.375695
-0.00089
0.476322
0.893898
1.147706
1.333333
1.333333
1.243155
1.064986
0.714908
0.366377
-0.014227
-0.437797
-0.776594
-0.998652
-1.174584
-1.177878
-1.165086
-1.046196
-0.704293
-0.419201
-0.118996
0.260341
0.547008
0.806104
1.088177
1.144324
1.129181
1.01941
0.66576
0.33995
0.009934
-0.368457
-0.711801
-0.962938
-1.187767
-1.244576
-1.201633
-1.072098
-0.682106
-0.345494
0.002435
0.38632
0.69396
0.920108
1.140749
1.165964
1.130471
0.999778
0.689871
0.391422
0.051881
-0.347133
-0.660384
-0.897196
-1.115844
-1.148392
-1.105307
-0.980639
-0.636795
-0.338128
-0.002491
0.399319
0.760097
1.047959
1.292011
1.310153
1.250571
1.128212
0.773839
0.389263
0.018469
-0.434919
-0.784666
-0.98663
-1.200454
-1.266105
-1.218829
-1.099313
-0.764342
-0.491349
-0.132507
0.22748
0.507457
0.824683
1.096005
1.179611
1.153456
1.058356
0.784878
0.500649
0.114437
-0.300461
-0.650934
-0.980029
-1.25822
-1.303465
-1.28358
-1.16573
-0.856225
-0.496606
-0.133163
0.255521
0.609845
0.920786
1.181623
1.230369
1.161936
0.99791
0.651077
0.365827
0.019872
-0.342853
-0.59791
-0.828153
-1.068809
-1.136019
-1.102598
-0.976689
-0.733582
-0.469983
-0.178168
0.227339
0.586197
0.857123
1.110388
1.197917
1.123307
0.971307
0.673146
0.363836
0.101308
-0.276227
-0.687512
-0.923612
-1.110794
-1.192693
-1.117211
-0.933122
-0.734132
-0.451466
-0.137768
0.252241
0.581913
0.799175
1.042605
1.152863
1.081332
0.968497
0.810112
0.658934
0.315078
-0.139964
-0.463506
-0.648562
-0.87512
-1.067902
-1.120771
-1.051247
-0.809023
-0.493923
-0.132948
0.281254
0.590218
0.769897
1.018877
1.074372
1.053417
0.979796
0.785182
0.509055
0.203963
-0.175437
-0.487318
-0.766064
-0.997889
-1.11259
-1.14485
-1.017577
-0.711435
-0.443133
-0.136618
0.208917
0.553972
0.84717
1.029609
1.105205
1.109723
1.005145
0.752329
0.419037
0.137316
-0.199036
-0.489522
-0.757125
-0.928773
-1.015549
-0.994618
-0.937063
-0.778228
-0.477673
-0.13183
0.262877
0.598792
0.854516
1.060856
1.155158
1.173201
1.077174
0.846966
0.514096
0.160514
-0.241815
-0.588747
-0.813544
-1.00867
-1.138462
-1.16574
-1.099382
-0.922199
-0.682953
-0.433627
0.038022
0.407178
0.731563
1.022145
1.145707
1.149342
1.137447
0.990491
0.619074
0.263642
-0.091662
-0.359001
-0.691499
-0.996442
-1.157093
-1.163003
-1.054985
-0.812635
-0.429245
-0.125865
0.218629
0.567341
0.845294
0.981576
1.15468
1.229216
1.10749
0.894221
0.625858
0.349023
-0.019588
-0.379808
-0.627255
-0.76599
-0.893368
-0.897603
-0.859892
-0.736123
-0.538745
-0.285272
0.041482
0.38096
0.68257
0.910455
1.061989
1.04635
0.945194
0.790873
0.541879
0.321125
-0.095796
-0.488997
-0.776319
-0.991312
-1.183495
-1.233973
-1.21337
-1.012048
-0.649783
-0.349114
0.008825
0.395996
0.76713
0.942945
1.108833
1.195065
1.202815
1.07215
0.735469
0.415253
0.074132
-0.31537
-0.639953
-0.909411
-1.113706
-1.074851
-0.934497
-0.816022
-0.505323
-0.198919
0.1467
0.531504
0.877558
1.121337
1.21524
1.170967
1.075536
0.952914
0.646732
0.33258
-0.050169
-0.469455
-0.782267
-0.990871
-1.203755
-1.243247
-1.152896
-1.008973
-0.673207
-0.391695
-0.031961
0.395304
0.728792
0.973961
1.220094
1.26158
1.183075
1.010535
0.665814
0.390222
0.090682
-0.327681
-0.744391
-0.915639
-1.101988
-1.098261
-1.008102
-0.927837
-0.598463
-0.183887
0.192393
0.550353
0.844329
1.085917
1.324207
1.28023
1.186958
1.043362
0.73157
0.428756
0.066539
-0.423227
-0.729829
-0.938617
-1.182418
-1.221596
-1.190751
-1.066934
-0.689933
-0.311382
0.05201
0.536977
0.859637
1.006018
1.200799
1.211503
1.154892
1.03184
0.715748
0.405085
0.076316
-0.306921
-0.567593
-0.793007
-1.052093
-1.12119
-1.132425
-1.073255
-0.767804
-0.374194
0.021454
0.425934
0.813547
1.06168
1.220986
1.204354
1.147521
1.020339
0.635841
0.3069
-0.003185
-0.359827
-0.672711
-0.939291
-1.119568
-1.122848
-1.059963
-0.938078
-0.583717
-0.28019
0.040098
0.426313
0.746374
0.974496
1.167127
1.200272
1.156189
1.037988
0.770158
0.467628
0.140404
-0.273734
-0.582199
-0.794344
-1.033755
-1.075895
-1.04699
-0.961861
-0.617675
-0.246696
0.140963
0.545318
0.882554
1.091591
1.306599
1.333333
1.3193
1.144622
0.832195
0.415699
-0.046417
-0.427659
-0.68249
-0.946504
-1.12918
-1.15015
-1.167884
-1.101904
-0.780352
-0.449712
-0.138635
0.346773
0.701213
0.979702
1.216703
1.216721
1.177761
1.067476
0.757644
0.49086
0.189923
-0.198349
-0.555341
-0.824488
-1.120543
-1.211296
-1.192787
-0.99941
-0.648763
-0.306743
0.037084
0.45703
0.785201
1.0549
1.245474
1.208482
1.185147
1.100926
0.783148
0.494741
0.198092
-0.119358
-0.452617
-0.747316
-1.002237
-1.029351
-0.982623
-0.878793
-0.563778
-0.305675
0.009223
0.415341
0.71075
0.917964
1.183211
1.216055
1.208174
1.104476
0.772453
0.445845
0.141363
-0.259331
-0.596353
-0.829336
-0.997018
-1.034107
-1.001983
-0.816932
-0.567636
-0.319908
-0.003123
0.354071
0.598396
0.826134
1.001863
1.021709
1.05447
1.106268
0.856332
0.555757
0.157296
-0.26318
-0.638616
-0.876405
-0.978356
-0.994152
-1.07315
-0.977552
-0.665586
-0.364832
-0.004983
0.431471
0.793898
1.028215
1.333333
1.333333
1.333333
1.285281
0.892325
0.484893
0.153397
-0.250431
-0.601722
-0.923105
-1.194273
-1.224479
-1.154252
-0.993425
-0.636356
-0.278165
0.084242
0.514752
0.905589
1.205901
1.333333
1.333333
1.333333
1.333333
1.01785
0.580662
0.142608
-0.287966
-0.675668
-0.959756
-1.263511
-1.333333
-1.304344
-1.119601
-0.714692
-0.373419
-0.016547
0.477025
0.868643
1.143102
1.333333
1.333333
1.333333
1.226004
0.8431
0.49159
0.206451
-0.11278
-0.623686
-0.962478
-1.236671
-1.329569
-1.322025
-1.177231
-0.822694
-0.432347
-0.169142
0.276943
0.652321
0.895311
1.165423
1.301787
1.232341
1.024838
0.764459
0.555203
0.139654
-0.221725
-0.531768
-0.92655
-1.185286
-1.156867
-1.083014
-0.943418
-0.575437
-0.287164
-0.039541
0.304988
0.628233
1.006187
1.267666
1.333333
1.333333
1.314865
1.038512
0.632681
0.339192
-0.034235
-0.365755
-0.658795
-0.868518
-1.03274
-1.071431
-1.008906
-0.841324
-0.564007
-0.198426
0.306523
0.757475
1.064911
1.309161
1.333333
1.333333
1.333333
1.101737
0.708611
0.35824
-0.111916
-0.695341
-1.176713
-1.333333
-1.333333
-1.276457
-1.138178
-0.801515
-0.379895
0.0361
0.541132
0.832215
1.02826
1.264134
1.305292
1.290519
1.128925
0.86898
0.594686
0.144794
-0.274849
-0.696962
-1.147703
-1.333333
-1.333333
-1.286475
-1.101465
-0.710981
-0.331343
-0.031369
0.426043
0.755609
1.044894
1.180983
1.264657
1.250854
1.144937
0.999983
0.753006
0.40685
-0.052331
-0.516818
-0.822602
-1.097378
-1.232435
-1.207238
-1.059211
-0.807611
-0.169411
0.216518
0.544455
0.797241
1.123805
1.333333
1.333333
1.333333
1.173661
0.960933
0.65236
0.342628
-0.064813
-0.471922
-0.768385
-0.95225
-1.04082
-1.016425
-0.904586
-0.730812
-0.501035
-0.356495
0.05569
0.556884
0.947218
1.226843
1.333333
1.333333
1.221893
1.090062
0.653755
0.266631
-0.166361
-0.590127
-0.960008
-1.165015
-1.323662
-1.33098
-1.238902
-0.994833
-0.62807
-0.32508
0.142602
0.607257
1.006506
1.195177
1.333333
1.287046
1.201684
0.946336
0.602875
0.39099
0.04976
-0.164428
-0.782474
-1.171065
-1.185074
-1.086244
-0.912755
-0.70075
-0.354995
-0.001344
0.380861
0.745392
1.095525
1.270417
1.333333
1.292165
1.230561
1.079747
0.700251
0.383573
-0.050685
-0.554379
-0.934227
-1.087348
-1.17919
-1.144544
-0.991503
-0.848245
-0.432415
-0.058474
0.382544
0.843244
1.149254
1.189349
1.254252
1.290972
1.248864
1.138696
0.71143
0.333053
-0.133138
-0.636907
-1.057677
-1.218124
-1.28449
-1.267426
-1.210669
-0.768066
-0.46881
-0.088138
0.385442
0.834961
1.217868
1.333333
1.333333
1.333333
1.333333
1.157154
0.666363
0.205466
-0.226072
-0.568043
-0.928468
-1.036155
-1.232703
-1.00455
-0.80571
-0.706267
-0.479352
-0.217909
0.015681
0.405535
0.640642
0.902664
1.119369
1.125403
1.119322
1.009768
0.678733
0.367895
0.033257
-0.199294
-0.490043
-0.799779
-1.011817
-1.10273
-1.066957
-0.947742
-0.517733
-0.127098
0.132087
0.473622
0.827595
1.061702
1.298369
1.266969
1.203167
1.109205
0.698535
0.341736
-0.002764
-0.390347
-0.759828
-1.015848
-1.25796
-1.25101
-1.078501
-0.84775
-0.438298
-0.040329
0.418695
0.983236
1.333333
1.333333
1.333333
1.333333
1.333333
1.197277
0.79543
0.364326
-0.125123
-0.547823
-0.942481
-1.206168
-1.333333
-1.333333
-1.333333
-1.226941
-0.846828
-0.453555
-0.14569
0.3048
0.548512
0.884507
1.329384
1.333333
1.333333
1.239773
0.8986
0.531464
0.240107
-0.058207
-0.336756
-0.796863
-1.157176
-1.199851
-1.051109
-0.914527
-0.560065
-0.187433
0.216106
0.716997
1.111918
1.240415
1.333333
1.130936
0.998203
0.894385
0.604431
0.348894
0.136832
-0.1117
-0.389344
-0.670263
-0.863094
-0.860178
-0.822863
-0.767867
-0.50014
-0.193541
0.025082
0.275753
0.581159
0.836144
1.088135
1.092683
1.08442
0.989271
0.762124
0.503515
0.162442
-0.248299
-0.606736
-0.887418
-1.12942
-1.14393
-1.123831
-1.001246
-0.587693
-0.191387
0.309419
0.788526
1.086111
1.235441
1.333333
1.333333
1.333333
1.179329
0.550266
0.216882
0.024403
-0.432739
-0.800073
-0.909186
-1.142769
-1.130171
-1.000454
-0.909419
-0.622755
-0.426413
-0.241863
0.164036
0.555189
0.970986
1.333333
1.333333
1.290174
1.131046
0.840864
0.561701
0.235244
-0.178022
-0.628906
-0.950487
-1.190961
-1.128768
-0.983285
-0.817044
-0.478655
-0.232903
0.068061
0.460338
0.745268
0.918327
1.209302
1.297023
1.27106
1.183994
0.842985
0.469038
0.109971
-0.123905
-0.365572
-0.598066
-0.865272
-0.958671
-0.911
-0.872292
-0.610243
-0.355351
-0.053264
0.292923
0.665199
0.975862
1.165049
1.277398
1.333333
1.333333
1.103166
0.745824
0.279185
-0.219789
-0.534783
-0.715471
-1.044216
-1.308491
-1.333333
-1.30664
-0.997815
-0.632727
-0.297986
0.093191
0.502693
1.042325
1.333333
1.333333
1.333333
1.252648
0.971082
0.697189
0.391289
-0.036872
-0.487265
-0.870999
-1.165393
-1.256458
-1.195721
-1.069187
-0.685351
-0.3406
-0.086291
0.282443
0.655664
0.97938
1.301671
1.333333
1.333333
1.300046
1.017973
0.606173
0.067642
-0.313582
-0.634385
-0.903936
-1.10042
-1.128037
-1.045877
-0.958401
-0.696481
-0.277401
0.072211
0.422289
0.774251
1.053836
1.300237
1.333333
1.333333
1.322948
0.955877
0.6758
0.344165
-0.050227
-0.424526
-0.765893
-0.987999
-1.074825
-1.201743
-1.117254
-0.796159
-0.409442
-0.116475
0.285973
0.648538
0.908913
1.164979
1.333333
1.333333
1.329301
1.10125
0.843525
0.490039
0.051886
-0.364127
-0.691231
-0.949505
-1.174904
-1.220713
-1.13425
-0.897962
-0.515433
-0.133298
0.288926
0.68194
0.956296
1.146356
1.178243
1.098436
1.009637
0.896524
0.630287
0.431358
0.136615
-0.247489
-0.597755
-0.836367
-0.950467
-0.923848
-0.850741
-0.721068
-0.413298
-0.207118
0.080871
0.500418
0.803411
1.083161
1.191594
1.141551
1.106011
1.069404
0.644392
0.296932
-0.069845
-0.417029
-0.693316
-0.871284
-0.977843
-1.046472
-0.808521
-0.439177
-0.201966
0.010529
0.358943
0.684378
0.876389
0.990161
1.152771
1.19369
1.088953
0.875268
0.612291
0.450804
0.059682
-0.322379
-0.654379
-0.915419
-1.069292
-1.178903
-1.087776
-0.9044
-0.571815
-0.201005
0.202557
0.608904
0.933425
1.154252
1.319615
1.333156
1.328558
1.178172
0.818596
0.448175
0.027803
-0.359892
-0.656872
-0.849514
-1.043357
-1.107845
-1.009069
-0.834743
-0.485823
-0.173706
0.176131
0.565503
0.873389
1.053599
1.14779
1.088089
1.115831
1.094275
0.739381
0.403616
0.0664
-0.338855
-0.730347
-1.003757
-1.16955
-1.120091
-0.981741
-0.81965
-0.41751
-0.129109
0.277535
0.69193
1.100682
1.200318
1.333333
1.333333
1.333333
1.249474
0.817023
0.341456
-0.101244
-0.462861
-0.738505
-0.952877
-1.143159
-1.177803
-1.10621
-0.925652
-0.560389
-0.250695
0.145352
0.578265
0.833757
1.066105
1.270554
1.249679
1.200818
1.084963
0.753652
0.460535
0.069221
-0.329664
-0.64422
-0.79361
-0.909237
-0.933196
-0.916207
-0.787541
-0.427975
-0.093988
0.266079
0.684921
0.954272
1.088231
1.211101
1.18402
1.118931
0.997342
0.656426
0.36989
0.077496
-0.329322
-0.626017
-0.900991
-1.171866
-1.068079
-0.901244
-0.901817
-0.56162
-0.192194
0.20731
0.61991
0.922325
1.167245
1.333333
1.333333
1.298246
1.130296
0.75055
0.400256
0.062887
-0.292277
-0.648504
-0.938916
-1.17103
-1.21543
-1.125433
-1.001994
-0.671324
-0.352415
0.033713
0.491114
0.875818
1.155714
1.314332
1.333333
1.330197
1.127996
0.682542
0.290782
0.06584
-0.233157
-0.514252
-0.729201
-1.012688
-1.034252
-0.921826
-0.781793
-0.475181
-0.199623
0.076639
0.440602
0.754056
0.98451
1.231193
1.273167
1.214473
1.083646
0.775332
0.50309
0.155825
-0.284707
-0.587983
-0.828803
-1.047684
-0.988426
-0.833129
-0.732604
-0.430637
-0.144808
0.149787
0.602477
0.946655
1.125316
1.291506
1.19532
1.09257
0.923408
0.636397
0.424067
0.077657
-0.387444
-0.488212
-0.779389
-1.085137
-1.162084
-1.144681
-1.045421
-0.733688
-0.451521
-0.116459
0.343014
0.690314
1.152291
1.333333
1.333333
1.321047
1.333333
0.960098
0.513249
0.259709
-0.149694
-0.491052
-0.79788
-1.128185
-1.131824
-1.088354
-0.980964
-0.675543
-0.350799
0.01831
0.506708
0.93403
1.219593
1.333333
1.333333
1.26006
1.110543
0.780541
0.443298
0.095798
-0.317217
-0.610034
-0.877847
-1.084612
-1.17218
-1.111525
-0.898693
-0.548616
-0.248321
0.106796
0.509891
0.836525
1.099988
1.333333
1.311115
1.289012
1.151812
0.775563
0.426398
0.098565
-0.275772
-0.615587
-0.958916
-1.230024
-1.245407
-1.158
-0.885372
-0.527604
-0.247734
0.077361
0.470858
0.885435
1.165645
1.333333
1.333333
1.333333
1.176526
0.816702
0.43892
0.07562
-0.345272
-0.706633
-0.988683
-1.250024
-1.301385
-1.191064
-1.001743
-0.605251
-0.228882
0.060266
0.408352
0.741167
1.087333
1.316954
1.333333
1.324724
1.260615
0.899268
0.549329
0.172096
-0.085448
-0.494156
-0.793064
-1.00106
-1.116231
-1.048449
-0.941766
-0.649091
-0.279689
0.121512
0.602447
1.04294
1.333333
1.333333
1.333333
1.333333
1.172228
0.830092
0.535938
0.243546
-0.234833
-0.688114
-0.995083
-1.211246
-1.250476
-1.179931
-1.063476
-0.777451
-0.456221
-0.109017
0.278605
0.633367
0.913611
1.184711
1.301279
1.333333
1.323054
1.026909
0.678755
0.312978
-0.139498
-0.530172
-0.844459
-1.033059
-1.073841
-1.044143
-0.980699
-0.740595
-0.440666
-0.088412
0.337289
0.736952
0.998382
1.213266
1.325535
1.318704
1.204056
0.956795
0.613993
0.232642
-0.183122
-0.583917
-0.911303
-1.139168
-1.213851
-1.116271
-1.040373
-0.788145
-0.357588
-0.042368
0.341199
0.697068
1.015578
1.244011
1.333333
1.327891
1.208911
0.938548
0.581046
0.218824
-0.209864
-0.642026
-0.910317
-1.046735
-1.103695
-1.06746
-0.982707
-0.819176
-0.533786
-0.095019
0.476626
0.870466
1.164234
1.296289
1.333333
1.333333
1.242894
1.017796
0.733631
0.412914
-0.066179
-0.480025
-0.751756
-0.893004
-1.012241
-1.088333
-1.056037
-0.90603
-0.570747
-0.221935
0.180868
0.579092
0.892473
1.106456
1.254206
1.302392
1.214302
0.928138
0.596991
0.214925
-0.174833
-0.316699
-0.702733
-0.955559
-1.130309
-1.22184
-1.139829
-0.917906
-0.479733
-0.073972
0.365588
0.755262
1.03013
1.215573
1.333333
1.333333
1.236982
1.061126
0.722143
0.359558
-0.031045
-0.374565
-0.721781
-0.970584
-1.135598
-1.266184
-1.234224
-1.024662
-0.635676
-0.250941
0.167168
0.622927
0.894458
1.117041
1.259175
1.278992
1.219645
1.057667
0.791945
0.517571
0.065432
-0.4029
-0.760016
-1.039348
-1.267354
-1.238048
-1.05991
-0.828182
-0.47768
-0.140749
0.210452
0.611327
0.890648
1.186597
1.333333
1.333333
1.302685
1.072513
0.677948
0.354882
-0.06429
-0.449822
-0.76347
-0.981937
-1.076091
-0.979156
-0.895818
-0.784978
-0.44311
-0.120269
0.285277
0.693617
1.008991
1.221085
1.333333
1.333333
1.333333
1.193501
0.768775
0.354334
-0.054485
-0.476249
-0.856237
-1.071496
-1.217641
-1.207917
-1.109397
-0.923577
-0.54036
-0.174381
0.183037
0.547697
0.928737
1.111202
1.24483
1.279736
1.306978
1.059182
0.62639
0.216163
-0.178859
-0.488139
-0.714152
-0.923975
-1.149963
-1.204836
-1.125048
-0.876512
-0.26782
0.041114
0.253271
0.569791
0.838325
1.099203
1.333333
1.333333
1.308403
1.186159
0.754422
0.412972
0.010308
-0.473485
-0.812336
-0.960528
-1.10367
-1.029248
-0.965103
-0.947861
-0.642004
-0.311735
0.062183
0.485705
0.85618
1.102111
1.313594
1.284264
1.182067
0.974099
0.658666
0.378337
0.087065
-0.322705
-0.659477
-0.918099
-1.168132
-1.179223
-1.079204
-0.928111
-0.497071
-0.00746
0.333639
0.661681
0.918612
1.062098
1.221602
1.252235
1.184455
1.055202
0.680526
0.360966
0.022304
-0.403323
-0.760762
-0.969284
-1.174619
-1.132022
-1.034932
-0.869812
-0.517707
-0.207411
0.170415
0.626456
0.956816
1.159865
1.333333
1.332071
1.248556
1.09408
0.706622
0.322751
-0.009078
-0.372178
-0.644516
-0.855824
-1.09032
-1.127457
-1.020459
-0.88628
-0.573237
-0.303487
0.057586
0.447654
0.771599
1.093134
1.333333
1.314927
1.185569
1.008682
0.627588
0.305357
-0.001041
-0.323036
-0.603109
-0.820815
-1.085043
-1.170097
-1.196793
-1.156653
-0.896174
-0.535344
-0.110922
0.294157
0.580841
0.788365
0.96648
1.095309
1.138919
1.199221
0.83959
0.448196
0.048785
-0.318709
-0.592403
-0.833071
-1.081657
-1.129301
-1.030238
-0.887189
-0.579909
-0.264968
0.074868
0.504139
0.83419
1.081531
1.32908
1.333333
1.315948
1.205129
0.850572
0.519718
0.171197
-0.237221
-0.584605
-0.868217
-1.151778
-1.284281
-1.300133
-1.072123
-0.65749
-0.345904
-0.059152
0.413282
0.750324
0.976618
1.174016
1.189805
1.161845
1.094808
0.791501
0.485395
0.164384
-0.288783
-0.674582
-0.935479
-1.131615
-1.070153
-0.940121
-0.793692
-0.556862
-0.324032
0.048528
0.42999
0.831468
1.104797
1.235683
1.272119
1.158311
0.98486
0.674601
0.365077
0.036886
-0.309986
-0.642897
-0.919943
-1.121655
-1.091767
-1.034371
-0.925719
-0.680723
-0.426242
-0.133539
0.296687
0.693989
0.955727
1.12831
1.160502
1.113807
1.045073
0.796819
0.510383
0.212371
-0.16972
-0.457994
-0.654935
-0.956019
-1.138707
-1.188736
-1.077687
-0.702828
-0.315525
0.160148
0.58974
0.744384
0.828306
0.956743
1.001434
1.055368
1.144869
0.954557
0.546686
0.083776
-0.302763
-0.586932
-0.738007
-0.941061
-1.031861
-1.016091
-0.930177
-0.657513
-0.34936
-0.007679
0.385447
0.732685
0.994267
1.208389
1.269213
1.218556
1.112701
0.856206
0.55057
0.220583
-0.148364
-0.475245
-0.766887
-0.977066
-0.98963
-1.004825
-0.917969
-0.65766
-0.350445
-0.009052
0.397635
0.67046
0.849612
1.09048
1.185714
1.168466
1.087414
0.7833
0.468546
0.149023
-0.174158
-0.460828
-0.770885
-1.05375
-1.208909
-1.187909
-1.060378
-0.712981
-0.437173
-0.162012
0.236656
0.570082
0.781135
0.972004
1.067418
1.083072
1.042088
0.83772
0.646616
0.388
0.067489
-0.164977
-0.393913
-0.762339
-0.961184
-1.010084
-0.93895
-0.775295
-0.503654
-0.063791
0.301956
0.648701
0.893368
1.01577
1.107143
1.098401
0.981497
0.760637
0.436754
0.074651
-0.291714
-0.610561
-0.85431
-1.084845
-1.157191
-1.130096
-1.007296
-0.806768
-0.610244
-0.316151
0.314737
0.772394
1.024397
1.190627
1.333333
1.333333
1.250031
0.927657
0.562356
0.240736
-0.073692
-0.433538
-0.745357
-0.941977
-1.079336
-1.245211
-1.163637
-0.807518
-0.28737
0.06133
0.419117
0.693372
0.910472
1.041259
1.153992
1.187096
1.131684
0.879627
0.548437
0.233476
-0.127088
-0.467642
-0.788702
-0.990945
-1.138493
-1.193699
-1.181449
-1.028702
-0.682139
-0.377191
0.068295
0.565543
0.931503
1.030662
1.036165
1.041878
1.158786
0.834325
0.38075
0.116522
-0.116515
-0.540035
-0.87181
-1.018464
-1.067658
-1.011715
-0.975802
-0.814992
-0.525191
-0.235038
0.094032
0.4127
0.740958
1.021644
1.248902
1.125424
1.060971
0.930526
0.665823
0.329336
0.104388
-0.214581
-0.559559
-0.869353
-1.016313
-1.153038
-1.131419
-1.031016
-0.735622
-0.385125
0.138797
0.599916
0.882756
1.077174
1.249547
1.231728
1.098106
0.896638
0.525953
0.2706
0.11283
-0.216965
-0.572884
-0.893319
-1.218268
-1.222532
-1.16472
-1.058324
-0.793259
-0.477078
-0.113987
0.245046
0.634771
0.975643
1.178629
1.232983
1.18985
1.045013
0.643646
0.386427
0.050215
-0.368118
-0.699644
-0.866316
-1.003967
-1.014615
-1.009153
-0.938935
-0.576208
-0.339392
-0.04084
0.323292
0.661672
0.978543
1.061265
1.094967
1.0498
0.85917
0.597938
0.156584
-0.06628
-0.293327
-0.437293
-0.6729
-0.965633
-1.09795
-1.093238
-0.991795
-0.640381
-0.245168
0.130226
0.47574
0.800048
1.037434
1.184391
1.249603
1.129363
0.936407
0.584586
0.393504
-0.073298
-0.553809
-0.823548
-1.009275
-1.231552
-1.260601
-1.108162
-0.957295
-0.648346
-0.370085
0.02187
0.461808
0.736433
0.910252
1.09548
1.126058
1.120709
1.039989
0.673067
0.340279
0.028832
-0.351088
-0.665348
-0.993799
-1.227944
-1.089052
-0.975301
-0.887438
-0.562148
-0.2764
0.046364
0.365477
0.629657
0.926187
1.180453
1.17861
1.143828
1.004224
0.570573
0.228645
-0.110288
-0.441998
-0.685862
-0.947916
-1.22456
-1.333333
-1.309475
-0.963694
-0.497024
-0.198147
0.149264
0.443624
0.680934
0.867041
1.129817
1.173838
1.16426
1.095069
0.771266
0.423896
0.060752
-0.347949
-0.699145
-0.968692
-1.278067
-1.333333
-1.333333
-1.267966
-0.982819
-0.653028
-0.223051
0.47697
0.953744
1.152362
1.285765
1.289279
1.166966
1.063478
0.91605
0.454283
0.076827
-0.332702
-0.715474
-1.115299
-1.333333
-1.333333
-1.204221
-0.928029
-0.531951
-0.246778
-0.010893
0.279342
0.520296
0.698797
0.885349
1.277234
1.333333
1.333333
0.833083
0.38112
-0.014759
-0.368632
-0.643572
-0.892119
-1.223741
-1.111924
-1.186196
-1.122465
-0.780287
-0.428364
0.012038
0.432357
0.760195
1.02208
1.264462
1.212783
1.138101
1.031406
0.732909
0.424349
0.062296
-0.365958
-0.739421
-0.885487
-1.216831
-1.299772
-1.333333
-1.325706
-1.189321
-0.826572
-0.196302
0.329548
0.560419
0.845142
0.978385
0.916519
0.889173
0.833355
0.641356
0.541003
0.148299
-0.402049
-0.748423
-1.1125
-1.325073
-1.223989
-0.689436
-0.776287
-0.871669
-0.737881
-0.264022
0.358283
0.651911
0.946204
1.281708
1.19191
1.057935
0.964908
0.725236
0.342247
-0.065926
-0.446413
-0.76606
-0.872524
-1.047964
-0.956461
-1.013711
-1.075059
-0.81847
-0.492741
-0.046328
0.401769
0.456663
0.895748
1.166547
1.167809
1.14374
1.022496
0.744213
0.430961
-0.013693
-0.410089
-0.530222
-0.715407
-0.958305
-0.999999
-0.920759
-0.873582
-0.697221
-0.442795
-0.141997
0.208603
0.501352
0.780837
0.957638
0.982662
1.053412
0.920316
0.538542
0.127101
-0.211346
-0.725956
-0.951046
-0.897119
-1.040847
-1.13362
-1.016673
-1.104612
-0.9547
-0.686286
-0.339304
0.155863
0.489224
0.783046
1.32477
1.333333
1.333333
1.333333
0.58644
-0.12956
-0.254604
-0.428825
-0.876305
-0.62622
-0.584397
-1.201665
-1.333333
-1.333333
-1.271922
-0.383606
0.289984
0.157893
0.272173
0.741454
1.164617
1.155217
0.980543
0.835424
0.627744
0.688533
0.185953
-0.314995
-0.715445
-1.027591
-1.333333
-1.314718
-1.10902
-0.713136
-0.719058
-0.423882
-0.196015
0.159342
0.490276
0.655346
0.873923
1.114062
1.333333
0.935936
0.62923
0.439889
0.227455
-0.113166
-0.389485
-0.774416
-0.990392
-1.06023
-1.028767
-0.969274
-0.774996
-0.525211
-0.214505
0.278824
0.632792
0.846626
1.065425
1.225155
1.089513
0.752896
0.387125
0.243431
0.08486
-0.418512
-0.761382
-0.757494
-0.877271
-1.333333
-1.333333
-1.333333
-0.951568
-0.501216
-0.058007
0.20772
0.427627
0.662045
0.839087
0.946711
0.895964
0.973703
0.508829
-0.01671
-0.09721
-0.471475
-0.600548
-0.693749
-0.774904
-0.830781
-0.921295
-0.902045
-0.875321
-0.653934
-0.362328
0.080422
0.413358
0.762701
0.756468
1.037668
0.892999
0.981641
0.876979
0.563686
0.2774
-0.302121
-0.726979
-1.151854
-1.276967
-1.25605
-0.963102
-1.04326
-0.912508
-0.62828
-0.521409
-0.150213
0.27202
0.95824
1.253435
1.033872
0.660264
0.520929
0.725718
0.927013
0.43522
0.195403
-0.438826
-0.631011
-0.847508
-1.230353
-1.304741
-1.040061
-0.918486
-0.640524
-0.179637
0.401188
0.723106
0.943009
1.008439
1.09394
1.156066
1.04183
0.853307
0.427974
0.120232
-0.047881
-0.486878
-0.922498
-1.219335
-1.326124
-1.094342
-1.054682
-1.022413
-0.832837
-0.585506
-0.080406
0.368343
0.479656
0.584263
1.172228
1.092248
0.9803
1.042566
1.00698
0.409149
-0.387158
-0.771898
-0.731946
-0.823462
-1.098777
-1.333333
-1.333333
-1.333333
-1.028192
-0.548331
0.163718
0.492011
0.772324
1.134596
0.871832
0.709028
0.981252
1.125257
0.667644
0.360949
-0.304772
-0.665908
-0.718963
-1.219836
-1.333333
-1.173953
-0.998797
-1.063151
-0.596722
-0.276258
-0.016051
0.366703
0.601947
0.546507
0.621264
0.878878
0.989853
1.116337
0.733383
0.210217
-0.121286
-0.340725
-0.444245
-0.968294
-1.333333
-1.236932
-1.038153
-0.829754
-0.332076
-0.239646
-0.026993
0.154854
0.245061
0.352184
0.697605
1.333333
1.333333
1.000834
0.65733
0.48236
0.040645
-0.291163
-0.457385
-0.785012
-1.186826
-1.252266
-1.245721
-1.03177
-0.584406
-0.34502
-0.033637
0.151684
0.444244
0.718159
1.11661
1.333333
0.854998
0.399314
0.219043
0.178404
-0.085579
-0.575777
-0.910035
-0.861948
-1.073097
-1.242002
-1.246518
-1.253697
-0.585867
-0.012695
0.081999
0.636068
0.673149
0.709459
0.937797
0.977652
0.969149
0.604124
0.26727
0.371785
0.318814
-0.143389
-0.764101
-1.219375
-1.333333
-1.195598
-0.993254
-1.180021
-1.090188
-0.771288
-0.349742
0.252325
0.690844
1.333333
1.197429
0.878015
0.66126
0.8034
0.906796
0.474149
0.037781
-0.580833
-0.845349
-1.134932
-1.273454
-0.902643
-0.81188
-0.866092
-0.72078
-0.700143
-0.477353
0.121778
0.584621
0.898786
1.17831
1.333333
1.332147
0.917893
0.554637
0.329753
0.091514
-0.370965
-0.774604
-0.98484
-1.154081
-1.227546
-1.113002
-1.041826
-0.720601
-0.462305
-0.265677
0.122524
0.576562
0.733496
0.958927
1.084222
0.969593
0.75206
0.419177
0.133856
-0.311797
-0.453981
-0.483141
-0.845842
-0.829936
-0.933867
-0.993665
-0.936127
-1.089044
-1.121578
-0.48804
0.219563
0.329582
0.625698
0.923623
1.020015
1.178847
0.591119
0.425971
0.502191
0.022594
-0.298015
-0.915689
-1.324881
-1.333333
-1.331868
-1.293351
-0.042173
0.240184
-0.404158
-0.502439
-0.152354
0.475279
1.068013
0.897918
0.676012
0.650409
0.518706
0.41119
0.265227
0.245631
0.111187
-0.017772
-0.507811
-1.06537
-1.106347
-1.005576
-1.043022
-0.811495
-0.438168
-0.028969
0.463285
0.586629
0.645877
0.831779
0.912101
0.832691
0.657379
0.366386
0.371519
0.340616
-0.49033
-0.84847
-0.932277
-1.03409
-1.124674
-1.066484
-0.993706
-0.776247
-0.602421
-0.36825
-0.001083
0.33479
0.619446
0.966736
1.089482
1.130155
0.891436
0.525557
0.112212
-0.416608
-0.953917
-0.982599
-1.067236
-0.815441
-0.654757
-0.766109
-1.062882
-1.020728
-0.638603
0.017514
0.480029
0.409794
0.518158
0.900388
1.185581
1.118632
0.96713
0.450668
-0.13518
-0.595741
-0.943016
-1.186882
-0.835435
-0.845394
-1.333333
-1.333333
-1.29953
-0.17101
0.265512
0.432459
0.259148
0.416418
0.653408
0.916212
1.035395
1.050586
0.960757
0.710857
0.38585
0.032198
-0.380045
-0.640251
-0.862573
-1.085998
-1.204162
-1.126561
-1.141447
-0.727317
-0.290488
-0.090935
0.215265
0.48142
0.704163
0.899335
1.023675
1.045159
0.859064
0.603636
0.359973
0.081511
-0.074217
-0.449848
-0.932061
-1.12196
-1.054861
-0.998893
-0.98787
-0.919237
-0.71421
-0.343984
0.153613
0.38195
0.560532
0.619107
0.640798
0.626131
0.604696
0.576443
0.332966
0.125006
0.181104
-0.546416
-1.097247
-1.333333
-1.333333
-1.333333
-1.333333
-0.21851
0.612152
0.098694
0.13405
0.365124
0.676212
0.959689
1.187186
1.298321
0.954851
0.72383
0.455455
0.17855
-0.286034
-0.760816
-1.017684
-1.168087
-1.138494
-0.802972
-1.080809
-1.124419
-0.902107
-0.695198
0.116649
0.69515
0.807028
0.738717
1.006635
1.273663
1.333333
0.779172
0.303067
-0.064008
-0.494389
-0.735912
-0.834847
-0.95072
-1.067977
-1.031931
-1.005453
-0.870979
-0.478219
-0.195501
0.084781
0.378717
0.661452
0.917538
1.25665
1.281648
1.04158
0.776071
0.477297
0.116805
-0.320009
-0.6179
-0.669735
-0.939302
-1.223695
-1.300541
-1.223112
-0.983377
-0.749048
-0.378423
-0.07577
0.358263
0.686598
0.830824
0.971476
0.994545
0.865259
0.653907
0.272975
-0.136221
-0.286113
-0.591366
-1.018967
-1.038802
-0.833212
-1.333333
-1.16448
-0.683348
-0.418094
-0.44833
-0.259672
0.147837
0.486359
0.705372
1.22001
1.333333
1.028717
0.744559
0.383312
0.11301
-0.170792
-0.487693
-0.776376
-0.9612
-1.107094
-1.073992
-0.990635
-0.836974
-0.591863
-0.363434
0.086825
0.399839
0.651229
0.920129
1.134419
1.258186
1.207294
0.995125
0.739581
0.268958
-0.076051
-0.521625
-0.863738
-1.068893
-1.331911
-1.333333
-1.300394
-1.042959
-0.70484
-0.436153
-0.084515
0.286888
0.684746
0.935596
1.041506
1.013263
0.932493
0.76637
0.428695
0.143871
-0.175034
-0.543991
-0.852063
-1.086875
-1.296371
-1.325769
-1.272995
-1.22708
-0.804844
-0.411417
-0.074302
0.196007
0.515429
0.89436
1.15679
1.198616
1.18276
1.058822
0.703913
0.383677
0.08081
-0.30485
-0.624483
-0.888681
-1.130847
-1.154366
-1.133062
-1.015574
-0.574726
-0.161852
0.082389
0.2904
0.640914
1.061031
0.960193
0.922832
0.647944
0.557275
0.248426
-0.092495
-0.325096
-0.375662
-0.749899
-1.171456
-1.206126
-1.020468
-1.067841
-1.285162
-0.819893
-0.539436
-0.298877
0.102168
0.461055
0.740041
0.981114
0.970343
0.885719
0.714646
0.305178
0.065607
-0.118891
-0.339116
-0.655087
-0.901339
-1.118139
-1.167198
-1.087157
-1.043776
-0.809453
-0.42977
-0.009366
0.351876
0.767101
1.133762
1.313769
1.283232
1.233036
1.110366
0.757109
0.433146
0.087872
-0.321553
-0.657631
-0.920882
-1.202152
-1.279981
-1.279878
-1.195309
-0.85342
-0.522184
-0.175166
0.168427
0.410575
0.580073
0.827114
1.034396
1.105711
0.944517
0.580164
0.294638
-0.024876
-0.426835
-0.789613
-1.061861
-1.322388
-1.333333
-1.283325
-1.114439
-0.766879
-0.462401
-0.142475
0.248505
0.575055
0.819737
1.057186
1.091136
1.059212
0.946102
0.639025
0.345125
-0.003562
-0.423336
-0.734718
-0.998056
-1.212967
-1.218704
-1.136624
-1.018716
-0.736028
-0.467394
-0.159138
0.280953
0.687217
1.005552
1.333333
1.333333
1.253741
1.07243
0.687635
0.223894
-0.241495
-0.647409
-0.888719
-1.094051
-1.333333
-1.333333
-1.333333
-1.23344
-0.894428
-0.583682
-0.257881
0.12788
0.439318
0.71939
1.078715
1.17569
1.135285
0.975777
0.633586
0.323096
0.029231
-0.341834
-0.64693
-0.940037
-1.223777
-1.291879
-1.27501
-1.176299
-0.870695
-0.587782
-0.296069
0.082456
0.411551
0.688284
0.973146
1.063986
1.035897
0.959834
0.73309
0.436828
0.107812
-0.288403
-0.604123
-0.829947
-1.062223
-1.118343
-1.111906
-1.011493
-0.736604
-0.450156
-0.149134
0.18708
0.480158
0.66723
0.842915
0.864555
0.842184
0.727676
0.357936
0.104199
-0.022623
-0.343061
-0.761489
-1.033034
-1.257364
-1.329439
-1.316328
-1.21877
-0.911616
-0.587295
-0.253386
0.140601
0.516007
0.770885
0.998567
1.044843
1.011985
0.918033
0.673636
0.391872
0.089251
-0.321256
-0.692479
-0.976398
-1.242938
-1.326311
-1.323579
-1.234921
-0.993308
-0.641187
-0.271652
0.159633
0.538143
0.82018
1.040703
1.081367
1.05705
0.970011
0.702315
0.382761
0.068527
-0.322678
-0.65548
-0.921928
-1.152362
-1.240413
-1.238316
-1.169284
-0.875038
-0.566499
-0.253514
0.122679
0.494983
0.776722
0.968496
1.049422
1.052552
0.970358
0.733352
0.419718
0.068074
-0.355235
-0.723016
-0.996506
-1.211008
-1.274462
-1.242697
-1.104674
-0.842296
-0.565085
-0.293653
0.094508
0.424997
0.708644
0.905183
1.047271
1.102794
1.004937
0.73496
0.387357
0.053153
-0.385797
-0.77368
-1.045787
-1.225746
-1.311992
-1.314574
-1.219392
-1.011682
-0.677664
-0.325328
0.096497
0.469586
0.778423
1.007167
1.132911
1.138867
1.032015
0.801792
0.462337
0.137983
-0.23541
-0.603953
-0.899566
-1.122121
-1.281648
-1.32901
-1.258172
-1.071206
-0.789385
-0.439523
0.012923
0.39879
0.714659
0.917159
1.057915
1.049289
0.946159
0.724956
0.413435
0.118829
-0.265241
-0.631216
-0.961458
-1.195935
-1.333333
-1.333333
-1.295844
-1.104948
-0.731739
-0.338189
0.042342
0.381399
0.716364
1.005807
1.206813
1.172514
1.053856
0.850436
0.505955
0.181912
-0.201578
-0.596191
-0.938327
-1.163959
-1.315643
-1.314109
-1.235483
-1.048623
-0.665302
-0.283857
0.099728
0.499968
0.851241
1.060147
1.196203
1.205215
1.115383
0.923817
0.58402
0.266627
-0.106125
-0.504896
-0.82449
-1.029223
-1.196746
-1.256532
-1.220497
-1.075525
-0.741597
-0.480315
-0.169702
0.238876
0.582644
0.758064
0.902228
0.983327
1.018174
0.831059
0.480907
0.151756
-0.156753
-0.517851
-0.835787
-1.030217
-1.184328
-1.195499
-1.13332
-0.981407
-0.640933
-0.328569
0.055417
0.449382
0.771274
0.961168
1.104747
1.085738
0.989134
0.812806
0.461231
0.155914
-0.186494
-0.56096
-0.824621
-0.923802
-1.066332
-1.12415
-1.068791
-0.937262
-0.605822
-0.314057
0.022958
0.404932
0.716996
0.905676
1.112882
1.139746
1.048496
0.900845
0.571629
0.196928
-0.193863
-0.515923
-0.790062
-0.983272
-1.156202
-1.133013
-1.089033
-1.007404
-0.709665
-0.461208
-0.079119
0.341341
0.689187
0.93971
1.182376
1.241639
1.187858
1.032471
0.672481
0.385126
0.056261
-0.323683
-0.672221
-0.872301
-1.040463
-1.055051
-1.008274
-0.944595
-0.680811
-0.461816
-0.206219
0.149111
0.470563
0.688887
0.961559
1.041734
0.999512
0.877178
0.566998
0.249066
-0.094079
-0.521966
-0.843546
-1.06622
-1.249036
-1.267535
-1.189797
-1.021541
-0.654393
-0.371381
-0.072977
0.289919
0.578016
0.868647
1.105673
1.160016
1.120125
0.998667
0.69227
0.356706
0.021175
-0.354642
-0.641482
-0.871812
-1.103305
-1.162869
-1.12696
-1.037123
-0.733991
-0.446535
-0.144485
0.224182
0.550751
0.804027
1.124151
1.215913
1.169317
1.040197
0.720323
0.436392
0.089292
-0.283399
-0.591238
-0.839128
-1.043982
-1.020234
-0.966096
-0.888075
-0.576118
-0.303823
-0.059825
0.234331
0.499231
0.731045
0.985802
1.073462
1.080998
0.97402
0.655995
0.330569
-0.022887
-0.446685
-0.7655
-0.998815
-1.100995
-1.030804
-1.008666
-0.900803
-0.589635
-0.315058
-0.027738
0.356145
0.644134
0.844935
1.042735
1.069291
1.021565
0.939797
0.661565
0.359375
0.015731
-0.449277
-0.846903
-1.1069
-1.298326
-1.226613
-1.0647
-0.967743
-0.633031
-0.311899
-0.006264
0.337162
0.638835
0.906044
1.139628
1.173506
1.112721
1.017249
0.729546
0.483571
0.14661
-0.275601
-0.599842
-0.875993
-1.137051
-1.193483
-1.159827
-1.029063
-0.697619
-0.410198
-0.102938
0.258625
0.586404
0.851095
1.096827
1.125646
1.087385
0.957298
0.64048
0.314998
0.014463
-0.315662
-0.572883
-0.791882
-1.017547
-1.103835
-1.062311
-0.955166
-0.650665
-0.3809
-0.05489
0.298505
0.560435
0.730463
0.874373
0.808763
0.761859
0.743802
0.674221
0.482517
0.129626
-0.279745
-0.639275
-0.865015
-1.063341
-1.115704
-1.086658
-1.010663
-0.755897
-0.516695
-0.278617
0.092313
0.512485
0.769537
0.978262
1.071595
1.051639
0.926496
0.643631
0.3669
0.077534
-0.233375
-0.478533
-0.676078
-0.931242
-1.007885
-0.99196
-0.889244
-0.637044
-0.345675
-0.037892
0.319436
0.588876
0.810099
1.007247
1.076026
1.019931
0.878618
0.613738
0.40448
0.177649
-0.15254
-0.536366
-0.86463
-1.077687
-1.094352
-1.045048
-1.013766
-0.82645
-0.590389
-0.310856
0.082254
0.382736
0.634253
0.899779
1.097747
1.115803
1.013361
0.81395
0.506456
0.165115
-0.226669
-0.577603
-0.853499
-1.080804
-1.228306
-1.188728
-1.012714
-0.747971
-0.505825
-0.212523
0.170306
0.530365
0.802054
0.996258
1.079111
1.058653
0.95901
0.655574
0.329628
0.016346
-0.383935
-0.738609
-0.858468
-0.911105
-1.038819
-1.128636
-1.189781
-1.049851
-0.705822
-0.27945
0.200962
0.604625
0.843511
1.065421
1.139192
1.114278
1.031754
0.83449
0.553584
0.246213
-0.101018
-0.462275
-0.761357
-0.968171
-1.068211
-1.058385
-0.991589
-0.78582
-0.472642
-0.131418
0.224239
0.560312
0.847777
1.072948
1.194678
1.175561
1.05076
0.770108
0.433552
0.104218
-0.290976
-0.620761
-0.868965
-1.026872
-1.110529
-1.110753
-1.006207
-0.8667
-0.566873
-0.28939
0.005625
0.392633
0.632831
0.785423
0.881987
1.051616
1.060925
0.785022
0.443977
0.095129
-0.266505
-0.495289
-0.789861
-1.04233
-1.208137
-1.211461
-1.094839
-0.875845
-0.537278
-0.212585
0.187471
0.58438
0.905607
1.133009
1.257275
1.252921
1.147847
0.903582
0.512779
0.21088
-0.132052
-0.447071
-0.688978
-0.891413
-1.029928
-1.07562
-1.011932
-0.895519
-0.576168
-0.222445
0.193354
0.534092
0.860641
1.140316
1.27334
