0.000000e+00
-4.558249e+15
2.735826e+16
-7.062117e+16
1.668942e+17
-4.090503e+17
4.084256e+17
7.165384e+17
-2.253252e+18
2.082214e+18
-4.359649e+17
-1.084572e+18
1.903906e+18
-6.119151e+17
-2.169657e+18
2.200640e+18
1.748652e+18
-4.545561e+18
8.817279e+17
3.449531e+18
-1.774472e+18
4.459690e+17
6.247317e+17
-3.597188e+18
-3.071672e+16
5.068366e+18
-4.475856e+18
2.665415e+18
1.701335e+18
-4.426529e+18
3.850721e+18
-9.726109e+18
1.144994e+19
1.095960e+18
-2.720130e+18
-6.457398e+18
-1.820268e+18
6.808759e+18
-2.213909e+17
1.013582e+18
8.451016e+18
-8.902651e+18
-7.097697e+18
1.124854e+17
1.348777e+17
5.561100e+18
1.223932e+19
-3.025910e+18
-1.170138e+19
-5.476672e+18
-4.859044e+18
1.823571e+19
4.168363e+18
-5.098567e+18
-6.834383e+18
1.633415e+18
-5.264817e+18
7.206376e+18
2.596296e+18
4.825491e+18
-2.472417e+19
2.052819e+19
1.491804e+18
-4.032494e+18
-1.498903e+19
1.352091e+19
8.529112e+18
-6.607542e+17
-1.418761e+18
-9.938460e+18
-4.728187e+18
-1.855865e+18
4.770402e+18
-7.271040e+18
2.262887e+19
1.436432e+19
-1.659635e+19
-1.087173e+19
-1.964904e+18
-3.880971e+18
-3.340940e+18
8.683486e+18
1.377587e+19
-9.608344e+18
-1.382349e+18
1.230406e+18
-4.823708e+18
2.768833e+17
2.255343e+19
6.936279e+18
-3.225058e+19
-1.907129e+19
9.163808e+18
1.314192e+19
9.002315e+18
-1.034715e+18
-1.332610e+19
1.855562e+19
-2.055399e+19
1.598453e+19
3.106728e+19
-1.416434e+19
-2.458962e+19
-9.686781e+18
-3.963087e+18
-1.514917e+17
6.267337e+18
-3.085537e+19
4.501432e+19
-3.915654e+18
3.476460e+18
5.925037e+18
4.253101e+19
-1.318701e+19
-6.432344e+18
-4.626603e+19
7.415266e+17
-2.214859e+19
-2.724467e+19
4.904225e+19
4.768875e+18
-4.027705e+18
5.885177e+18
4.620756e+19
8.377590e+17
6.707309e+18
-4.191696e+19
1.488144e+19
-4.410979e+19
-7.376764e+18
-3.917798e+18
7.703449e+18
4.937217e+19
-1.145078e+19
6.189388e+18
-2.705121e+19
-7.919255e+17
8.055973e+18
1.857544e+19
-1.862916e+19
2.642835e+19
-2.543907e+19
8.847796e+18
-1.208364e+19
-1.213685e+19
4.756023e+19
-3.186087e+19
-1.199078e+19
-8.839707e+18
2.592476e+19
-3.066076e+19
4.903836e+19
-2.849591e+19
1.938293e+19
-4.485705e+18
1.059946e+19
1.779506e+18
-2.011473e+19
2.046664e+19
-2.443365e+19
-7.561292e+18
-4.649687e+19
3.724536e+19
-8.111932e+18
2.900071e+19
-4.491458e+18
5.305343e+19
-3.093774e+19
1.793279e+19
-4.032525e+19
2.841711e+19
2.298081e+19
-6.881879e+19
4.154112e+19
-8.134920e+19
2.639492e+19
-1.246237e+19
1.675619e+19
1.709973e+19
3.307985e+19
-1.755010e+19
2.353221e+19
7.191702e+18
-2.457435e+19
8.281926e+19
-3.149529e+19
-3.421582e+19
-6.802002e+19
-8.463443e+18
-1.766223e+19
3.144833e+19
-9.337064e+18
4.660802e+19
-2.610634e+19
4.319224e+18
1.079036e+20
-3.764313e+19
1.519928e+19
-3.744531e+19
-1.092586e+19
-3.609664e+19
1.034112e+19
-2.360478e+19
1.521695e+19
-3.859184e+19
5.428134e+19
-1.180328e+19
1.449827e+19
7.098578e+19
-2.201583e+19
-3.583415e+19
-2.771674e+19
-6.127578e+19
9.432442e+19
1.252840e+18
-7.055743e+19
3.396757e+19
8.152965e+19
-6.090656e+19
-7.542098e+16
1.787596e+19
-2.079791e+19
6.563020e+19
-6.870109e+19
-3.867632e+19
-3.997406e+19
1.072103e+20
1.785179e+18
-6.353236e+19
-4.027508e+19
1.068396e+20
4.817567e+17
-4.559918e+19
4.652264e+19
-1.407636e+19
1.225724e+20
-1.148981e+20
-1.053849e+20
2.499144e+19
8.345673e+19
-8.968448e+19
-2.329297e+18
2.890385e+19
6.359868e+19
1.353065e+19
-4.356698e+19
5.248441e+19
-3.319507e+19
6.010399e+19
-3.104487e+19
-1.225712e+20
-3.652603e+19
1.338255e+20
-4.206737e+19
-1.218740e+19
-1.259322e+19
9.747986e+19
1.351316e+19
-4.398307e+19
-1.117848e+19
1.692906e+19
4.630268e+19
-1.062508e+20
-3.650077e+19
-2.299758e+19
1.056505e+20
-4.768874e+18
-2.544922e+19
-2.493565e+19
9.465571e+19
-5.184806e+19
-7.535942e+18
6.870393e+19
-1.328195e+19
-1.607935e+18
-5.510299e+19
-2.426771e+19
-5.591963e+19
1.224680e+20
-3.062420e+19
-7.500990e+19
-3.814564e+19
1.663193e+20
4.402696e+19
-1.079741e+20
-8.806132e+18
3.428213e+19
6.354039e+19
-5.298071e+19
-9.133905e+19
-1.027518e+19
9.928962e+19
-1.992771e+19
-3.354947e+19
-1.256570e+19
5.948383e+19
-4.129099e+19
1.566733e+19
2.762448e+19
5.325047e+19
3.692488e+19
-1.283222e+20
-6.923573e+19
1.013611e+18
9.902575e+19
-1.292932e+19
-4.572538e+19
-3.323601e+19
1.288934e+20
1.125368e+18
-1.450569e+19
-3.788008e+19
1.926738e+19
5.898334e+19
-5.520429e+19
-6.881362e+19
-1.340109e+19
7.969860e+19
-6.923805e+19
-2.762733e+19
4.592783e+18
1.556332e+20
-8.034828e+19
-4.501273e+19
7.732700e+19
2.480695e+18
9.159236e+19
-4.288427e+19
-1.791082e+20
-4.347673e+19
1.728703e+20
-2.813921e+19
-3.512060e+19
-1.607077e+19
5.427560e+19
-3.043928e+19
-2.806126e+19
1.094952e+20
-8.186475e+18
-1.961854e+19
-4.941355e+19
2.146467e+19
-7.043323e+19
1.121663e+20
-4.511776e+19
-9.991438e+19
-1.421325e+19
1.621243e+20
5.693372e+19
-9.842977e+19
1.422302e+17
-7.812903e+18
6.995782e+19
-5.298362e+19
-5.870780e+19
-5.631293e+19
5.039934e+19
1.020203e+19
-5.663131e+18
2.718472e+19
7.459493e+19
-2.513042e+19
-7.182376e+18
-9.936087e+18
-1.750473e+18
1.484007e+20
-1.866686e+20
-1.069226e+20
4.222448e+19
9.419461e+19
2.542052e+19
-8.772957e+19
-5.816666e+19
7.959878e+19
5.242144e+19
1.988561e+19
8.038117e+19
-5.729522e+18
-2.378871e+19
-7.505805e+19
-1.206495e+20
-1.375490e+19
1.136435e+20
-3.834686e+19
-4.306449e+19
5.271304e+19
2.163263e+19
1.051762e+20
-6.090922e+19
-4.517480e+19
3.350388e+19
1.470816e+20
-3.910833e+19
-1.896763e+20
-7.614531e+19
4.313917e+19
-7.141619e+18
5.505097e+19
4.808312e+19
4.843489e+19
6.927242e+19
-5.387197e+19
-9.559481e+19
5.791725e+18
3.510145e+19
-1.673059e+19
1.321795e+19
-8.214377e+19
1.433533e+20
-7.444960e+19
-1.295317e+20
8.238680e+19
1.189031e+20
8.017936e+19
-7.642961e+19
-1.187852e+20
-3.917460e+19
8.450808e+19
8.733945e+17
1.840298e+18
-3.185697e+19
8.152202e+19
-1.409884e+20
1.107517e+20
7.271483e+19
-1.600315e+20
1.125799e+20
-5.693309e+19
6.671293e+19
4.430711e+19
-1.597103e+20
-9.969486e+19
1.192576e+20
-2.516162e+19
1.578338e+20
-3.300314e+19
7.903340e+19
-5.098764e+19
-2.449884e+20
9.620554e+19
1.934714e+19
1.474212e+20
2.127509e+19
-2.585610e+20
1.862289e+18
1.149498e+20
-5.945178e+19
1.512882e+20
-7.784782e+19
1.100466e+20
1.143482e+20
-3.038970e+20
1.074582e+20
-1.001690e+20
2.050689e+19
9.162211e+19
-1.406005e+20
6.546927e+19
6.859190e+19
-1.606164e+20
1.472244e+20
-9.040427e+18
6.807645e+19
1.106422e+20
-2.030468e+20
3.964828e+19
-9.058575e+19
9.309334e+19
7.358938e+19
-2.832795e+20
-1.907053e+19
2.441720e+20
-4.938519e+19
1.083479e+20
-2.468088e+19
-4.910735e+19
4.383635e+19
-1.759204e+20
1.370599e+20
1.777641e+19
-2.658211e+18
-7.567576e+19
-1.977163e+20
9.815017e+19
1.404187e+20
1.656952e+19
1.632631e+20
-1.330089e+20
3.190292e+18
3.389633e+19
-1.748103e+20
2.717254e+19
-4.164384e+19
1.394245e+20
6.856060e+19
-2.608441e+20
-1.859676e+18
8.709568e+19
-6.054928e+19
2.500960e+20
-6.761514e+18
3.421540e+19
-2.189032e+19
-2.443088e+20
7.545407e+19
-1.741698e+18
1.474187e+20
-1.742532e+19
-2.826272e+20
1.393373e+19
1.531677e+20
-9.298789e+19
2.125026e+20
-7.859031e+19
4.780945e+19
9.187898e+19
-2.230641e+20
1.339715e+20
-7.905432e+19
1.630532e+19
6.391119e+19
-1.909442e+20
-2.078119e+19
1.753038e+20
-1.143333e+20
9.622656e+19
-2.282833e+18
1.109181e+20
2.921331e+19
-2.426438e+20
3.768175e+19
1.275920e+19
6.402091e+18
1.221524e+20
-1.888646e+20
3.474296e+19
1.392734e+20
-1.462037e+20
8.190362e+19
-1.415946e+19
1.052905e+20
2.975267e+19
-1.809428e+20
4.856732e+19
-3.702120e+19
4.261366e+19
9.032086e+19
-1.944439e+20
-9.700480e+19
9.261336e+19
-3.733305e+19
2.527444e+20
-5.540071e+18
1.878409e+20
-6.822530e+19
-3.350276e+20
5.215408e+18
-7.256321e+19
1.481454e+20
9.227457e+19
-1.877432e+20
3.851060e+19
1.848668e+20
-1.794105e+20
2.049650e+20
-3.748692e+19
-3.041499e+19
7.610527e+19
-2.225515e+20
1.220110e+19
-1.224313e+20
9.451423e+19
1.729110e+20
-1.330116e+20
2.085074e+20
7.793393e+19
-2.536642e+20
7.615223e+19
-1.129944e+20
5.451358e+17
1.078857e+20
-1.851833e+20
1.127038e+20
-1.152841e+19
9.545679e+19
1.757711e+20
-2.830167e+20
-2.652745e+19
1.585729e+20
-1.283057e+20
2.158203e+19
-6.519735e+19
5.885509e+19
9.385767e+19
-6.104768e+19
1.323842e+20
1.903418e+19
-4.299903e+19
-1.083069e+20
-1.933201e+20
-3.051713e+19
2.118326e+20
-9.089939e+19
1.168937e+20
2.175220e+19
8.686970e+19
9.012569e+19
-1.348533e+20
1.104719e+19
-1.446362e+20
7.065726e+19
3.660578e+18
-2.892500e+20
3.763096e+19
1.830483e+20
-4.564825e+19
2.779919e+20
-2.413776e+19
9.562321e+19
1.228602e+19
-3.944002e+20
5.086680e+19
-1.407274e+19
2.500070e+19
1.019546e+19
-1.405963e+20
9.924682e+19
1.539391e+20
1.778267e+19
1.981227e+20
-2.029479e+20
-1.573323e+19
2.152931e+19
-2.153428e+20
7.533831e+19
-2.352011e+19
3.899868e+19
1.060565e+20
-1.693594e+20
3.500793e+19
3.229810e+20
-2.250766e+20
5.545865e+19
-5.468459e+19
-5.012448e+18
-5.975968e+18
-1.689783e+20
1.279401e+20
-4.819540e+19
1.997767e+20
9.811165e+19
-2.353733e+20
-8.378045e+19
5.970379e+19
-1.559090e+20
2.544709e+20
-4.070927e+19
1.368286e+19
5.178857e+19
-1.969089e+20
1.799315e+20
4.334308e+19
1.837809e+20
-9.329498e+19
-3.424815e+20
-1.351479e+20
7.645707e+19
3.125379e+18
1.670009e+20
3.518599e+19
1.306968e+20
8.937041e+19
-1.425369e+20
-2.965661e+19
-3.538485e+19
5.881361e+19
6.413350e+19
-2.257823e+20
-1.397664e+20
4.312608e+19
-5.655234e+19
2.699025e+20
3.439796e+19
3.101500e+20
5.688568e+18
-4.267160e+20
1.090842e+19
-1.455781e+20
3.229672e+19
1.003082e+20
-1.393409e+20
6.915371e+19
2.348779e+20
-1.370790e+20
2.346257e+20
-9.251683e+19
1.452471e+19
2.462929e+19
-1.629079e+20
-7.233232e+19
-1.154444e+20
8.565697e+19
1.220707e+20
-1.683048e+20
1.398952e+20
2.413772e+20
-3.134739e+20
1.323694e+20
-6.782975e+19
6.925073e+19
7.256792e+19
-2.344047e+20
4.748989e+19
-5.697162e+19
2.042958e+20
9.782191e+19
-4.199496e+19
-1.083545e+20
-1.564542e+19
-1.486874e+20
-8.698016e+18
-2.946523e+19
1.477833e+20
1.468612e+20
-1.866471e+20
2.423451e+20
-1.247527e+20
8.742296e+19
3.843360e+19
-3.724214e+20
-1.678072e+19
2.027801e+20
-5.557686e+19
1.002199e+19
-2.218650e+19
1.451250e+20
3.403292e+19
-1.193056e+19
1.832625e+20
-1.357269e+20
-1.105872e+20
-5.850672e+19
-2.488004e+20
-5.389438e+19
2.333581e+20
-7.875908e+19
3.072164e+20
-2.980786e+19
6.013692e+19
2.339310e+20
-4.067867e+20
2.433298e+19
-5.254485e+19
7.264408e+19
-8.581958e+19
-2.128204e+20
7.453527e+19
9.426570e+19
1.356236e+20
1.835332e+20
3.915315e+19
-8.352864e+19
-9.978021e+19
-2.580044e+20
2.374107e+19
3.935641e+19
5.449471e+19
1.607374e+20
-2.693209e+20
1.336433e+20
2.769542e+19
2.042575e+20
1.092892e+20
-3.313217e+20
5.849009e+19
2.681496e+19
-1.601340e+20
2.730077e+19
-4.563748e+19
1.031762e+20
3.793222e+19
-6.912827e+19
2.638184e+19
7.524675e+19
2.435695e+19
7.529147e+19
-1.736668e+20
-1.553108e+20
1.028414e+20
-5.471175e+19
2.929811e+20
-1.025142e+20
2.177070e+20
-1.784762e+19
-4.724573e+20
9.954426e+19
-6.726896e+19
1.534264e+20
5.398853e+19
-1.724655e+20
6.299235e+19
1.464962e+20
-6.711291e+19
1.751641e+20
1.933110e+19
-1.122682e+20
7.287756e+18
-1.652455e+20
-6.438029e+19
-7.236876e+19
1.447573e+20
1.674838e+20
-1.586325e+20
1.204035e+20
2.030730e+20
-3.500727e+20
1.117949e+20
-7.054617e+19
7.782120e+19
7.681141e+19
-2.046761e+20
-3.363978e+19
2.565374e+19
1.802149e+20
3.914995e+19
-4.678281e+19
-6.640494e+19
6.235703e+19
-2.019625e+20
7.905781e+19
-5.728511e+19
8.799679e+19
1.431239e+20
-1.440173e+20
2.750774e+20
-1.443763e+20
9.587628e+19
-1.964276e+20
-1.857215e+20
-3.704935e+19
3.321681e+19
1.935664e+20
-2.686571e+20
3.188503e+20
2.400157e+20
-1.599355e+20
-1.925840e+19
-2.278156e+20
2.464958e+20
1.273343e+20
-1.973103e+20
-1.638092e+20
-4.503211e+20
3.288317e+20
2.879316e+20
1.236537e+20
-1.807340e+20
2.833870e+19
9.815934e+18
1.253526e+20
1.357803e+20
-2.049592e+20
-1.922388e+20
-5.109984e+20
3.360858e+20
3.144387e+20
2.422307e+19
1.528769e+20
-3.605468e+20
3.140818e+20
1.405156e+20
-1.633413e+20
-1.815894e+20
-3.742233e+20
3.505254e+20
1.548250e+20
-1.005746e+20
-7.072785e+19
-2.688809e+20
3.303071e+20
2.609885e+20
-6.411379e+19
-3.114267e+20
8.829764e+19
-2.405607e+20
3.285304e+20
2.464020e+20
-1.553489e+20
-8.177711e+19
-3.606042e+20
3.633256e+20
1.162078e+20
-6.174526e+19
-2.310899e+20
-3.641092e+20
3.197502e+20
1.523920e+20
-2.215826e+19
4.655480e+19
-1.142775e+20
2.404072e+20
4.257992e+20
-1.748468e+20
-4.142541e+20
-4.014113e+20
1.539634e+20
2.774031e+20
-9.135881e+19
-1.513953e+20
9.950464e+19
-1.238330e+20
4.104074e+20
2.866912e+20
-7.950417e+19
-3.259466e+20
-3.682477e+20
2.597757e+20
2.315987e+20
-1.227639e+20
-1.462309e+20
-2.586735e+20
2.324794e+20
4.110451e+20
-3.309408e+19
-2.193941e+20
-3.740192e+20
1.773537e+20
3.628521e+20
-3.138041e+19
-2.338741e+19
-4.364719e+20
2.530875e+20
2.503030e+20
-1.719126e+20
-6.139226e+18
-3.893862e+19
-2.138144e+20
3.170296e+20
1.012411e+20
-1.629511e+20
-1.789385e+20
-3.127361e+20
2.802126e+20
5.059982e+20
-3.195197e+19
-3.228142e+19
-4.140146e+20
-1.635755e+19
1.855765e+20
-5.084361e+19
3.172265e+19
-4.186432e+20
4.451264e+20
3.957344e+20
-1.635960e+20
-8.470800e+19
-3.802417e+20
1.441818e+20
1.183120e+20
-9.984437e+19
-3.050404e+20
9.458552e+19
-8.383979e+19
3.329788e+20
4.767131e+20
-1.400189e+20
-5.475566e+19
-2.915384e+20
7.181116e+19
4.890846e+19
-1.923728e+20
-5.550907e+19
-3.725441e+20
3.720047e+20
2.280329e+20
-1.370415e+19
7.163665e+17
-1.924482e+20
3.309609e+20
8.400668e+19
2.416734e+19
-2.092727e+20
-5.541456e+20
1.334745e+20
1.157166e+20
6.599951e+19
2.389891e+19
2.310456e+20
-7.548607e+19
3.225766e+20
1.086478e+20
-3.201008e+20
-1.885021e+20
-3.871612e+20
2.772783e+20
2.016845e+20
-1.286295e+20
-8.367701e+19
-3.281210e+20
4.533855e+20
2.240414e+20
1.856025e+19
-1.179642e+20
-2.917864e+20
2.696434e+20
2.908373e+20
-1.563411e+20
-1.005268e+20
-3.111432e+20
6.534658e+19
2.834353e+20
-2.642103e+20
-2.956213e+20
1.627626e+20
-1.258508e+20
4.524678e+20
3.102090e+20
-6.323791e+19
-1.967129e+20
-2.386599e+20
1.983553e+20
2.507788e+20
-9.043092e+19
-3.493033e+20
-4.889520e+20
1.965312e+20
2.954294e+20
3.096828e+19
2.970630e+19
-1.289613e+20
3.610276e+20
4.097648e+20
-5.484118e+19
-3.696069e+20
-4.414110e+20
5.300116e+19
1.495954e+20
-1.530131e+20
-6.629213e+19
-3.287537e+20
4.676810e+20
4.571048e+20
-5.575449e+19
1.802683e+19
-7.395886e+19
-2.654123e+20
2.664905e+20
5.452214e+19
-2.217346e+20
-2.504355e+20
-3.832908e+20
2.309295e+20
4.926039e+20
2.722274e+19
3.688353e+18
-3.435762e+20
2.022790e+20
2.046802e+20
-1.873204e+20
8.700221e+19
-4.211795e+20
2.554042e+20
3.303656e+20
-1.313696e+19
-1.357878e+20
-6.336882e+20
1.380103e+20
3.017563e+20
1.178700e+20
-1.393144e+20
1.585147e+20
-1.343135e+20
1.901682e+20
2.947393e+20
-2.982914e+20
-1.051316e+20
-3.373070e+20
2.128955e+20
2.211983e+20
-1.722331e+20
-4.834719e+19
-2.460303e+20
1.627367e+20
1.881657e+20
3.230070e+19
7.872339e+19
-2.558832e+20
3.629302e+20
1.243436e+20
4.503375e+19
-1.720798e+20
-5.034729e+20
1.423353e+20
2.802440e+19
-1.088845e+20
-1.835771e+20
1.168519e+20
-1.595262e+20
5.308952e+20
3.044916e+20
-3.927505e+19
6.286497e+19
-5.334421e+20
4.226916e+20
1.069211e+20
-3.159750e+20
-3.630480e+20
-3.713200e+20
2.507502e+20
1.773932e+20
1.123854e+20
4.423627e+19
-1.110750e+20
4.184017e+20
3.591069e+20
-1.913806e+20
-2.079763e+20
-4.422925e+20
8.242480e+18
2.078931e+20
-1.459712e+20
-1.592534e+20
2.135495e+20
-1.316224e+20
3.603849e+20
3.914906e+20
-2.432672e+20
-3.619447e+20
-2.577101e+20
2.838984e+20
2.269741e+20
-4.869147e+18
-2.464120e+20
-4.048367e+20
2.863681e+20
3.815249e+20
5.967820e+19
-4.718543e+19
-2.971376e+20
1.551422e+20
2.894121e+20
-2.028743e+20
-1.161697e+20
-4.520575e+20
3.038633e+20
2.340823e+20
-9.937060e+18
-3.452196e+20
-1.236218e+20
4.758584e+19
4.432208e+20
2.707221e+20
-1.042443e+20
-2.615465e+20
-2.963866e+20
4.332620e+20
3.472600e+20
-1.015614e+20
-1.569972e+20
-6.033547e+20
-1.362207e+20
2.075260e+20
-6.297719e+19
9.718220e+19
-1.328288e+20
4.375648e+20
3.920377e+20
-9.192102e+19
7.825224e+19
-5.145071e+20
1.163705e+20
2.006281e+20
-8.379770e+19
-2.707075e+20
-2.374084e+20
-2.127916e+20
4.461945e+20
4.397298e+20
-8.452204e+19
-4.626669e+19
-3.680879e+20
1.091565e+20
2.455225e+20
-5.876563e+19
-1.729969e+20
-4.078168e+20
3.378929e+20
2.732823e+20
-1.583529e+20
1.869313e+19
-1.262493e+20
2.648084e+20
1.969532e+20
-3.740010e+19
-1.737755e+20
-3.594595e+20
1.912565e+20
1.481364e+19
4.353247e+18
-6.760773e+19
2.809610e+19
-3.154040e+20
3.095184e+20
2.713246e+20
-2.471598e+20
-2.748800e+19
-3.834890e+20
3.961399e+20
4.124826e+20
1.083666e+20
-1.924578e+19
-5.708595e+20
2.639270e+20
-3.046630e+19
-2.080955e+20
-1.262078e+20
-2.770590e+20
4.014309e+20
1.307118e+20
-4.590422e+19
-7.385848e+18
-1.241430e+20
2.713526e+20
3.493264e+20
-2.548229e+20
-3.902449e+20
4.948011e+19
-2.174621e+20
3.078535e+20
2.269858e+20
-1.656771e+20
-6.527036e+19
-3.307548e+20
6.104469e+20
2.190537e+20
-1.736158e+20
-1.518166e+20
-3.957085e+20
-3.513497e+18
2.547677e+20
-1.117110e+18
-2.023379e+20
-2.145648e+20
2.536201e+20
3.924603e+20
5.673265e+18
-1.665019e+19
-3.829762e+20
1.544452e+20
1.825817e+20
-1.134129e+20
-1.564558e+19
2.793349e+19
-1.037410e+20
3.257233e+20
4.345769e+19
-4.288048e+20
-2.793438e+20
-1.283211e+20
3.963054e+20
4.098284e+20
-1.668062e+20
-2.914045e+20
-2.589679e+20
4.177488e+20
3.446915e+20
3.711934e+19
-1.744679e+20
-5.026991e+20
7.305875e+19
3.209278e+20
-6.190415e+19
8.354474e+19
-4.146359e+20
2.384439e+20
3.531384e+20
-1.063700e+20
-3.965810e+19
-6.347689e+19
-4.239864e+20
2.458088e+20
2.968649e+20
-1.606526e+20
-3.767499e+20
-2.855277e+20
2.994460e+20
5.117804e+20
1.368200e+20
1.027346e+20
-4.381796e+20
1.952979e+20
6.906340e+19
-2.575494e+20
-9.900846e+19
-2.135214e+20
3.726113e+20
2.162677e+20
-2.454264e+20
-2.422972e+20
-2.391601e+20
3.159741e+20
2.023939e+20
1.274732e+20
-2.575404e+20
-2.814947e+19
-1.103140e+20
2.417663e+20
3.581857e+20
-2.765093e+19
-1.978378e+20
-5.347172e+20
2.361228e+20
3.191724e+20
-1.926545e+20
-4.790465e+19
-4.754367e+20
2.860358e+20
3.435045e+20
1.298003e+20
8.107330e+19
-4.439767e+20
3.776487e+20
2.151859e+19
-2.255410e+20
-2.010796e+20
-3.759695e+20
3.229974e+20
9.839195e+19
-1.466422e+19
-5.436166e+19
3.250966e+20
-7.966759e+19
4.588881e+20
4.719484e+19
-4.102684e+20
-1.848920e+20
-4.540733e+20
2.445461e+20
1.503842e+20
5.240935e+19
-1.150656e+20
-3.199891e+20
5.492875e+20
2.036395e+20
-9.439992e+19
-1.706807e+19
-2.790137e+20
5.524567e+19
2.604338e+20
-3.844857e+19
-2.680900e+20
-2.892487e+20
1.793485e+20
3.235650e+20
-1.700792e+19
-1.398350e+20
-1.568069e+18
-2.316598e+20
2.956790e+20
2.016986e+20
5.505708e+19
-1.444149e+20
-2.900685e+20
2.706641e+20
1.016936e+20
-3.376678e+20
-2.425176e+20
-1.543319e+20
3.449706e+20
3.870589e+20
-1.231352e+20
-1.951763e+20
-1.474606e+20
4.611540e+20
4.543184e+20
-1.662372e+20
-2.603725e+20
-6.536306e+20
5.171286e+19
1.870746e+20
-1.540875e+20
2.063338e+19
1.128051e+20
1.735238e+19
4.604552e+20
2.897122e+20
-3.753661e+19
-3.307283e+20
-6.320104e+20
2.398065e+20
4.417025e+20
-1.442774e+20
-2.635911e+20
-5.053771e+20
2.762792e+20
3.113069e+20
1.642578e+20
1.638581e+20
-1.012206e+20
1.957632e+20
-8.353328e+19
-9.653527e+19
-2.306626e+20
-2.874906e+20
2.442679e+20
3.712798e+20
-3.181099e+20
-4.958217e+20
3.665768e+20
-1.105600e+20
3.190997e+20
3.648276e+20
-1.158903e+19
-2.998551e+20
-5.142264e+20
4.761950e+20
2.186503e+20
5.622264e+19
-1.745669e+20
-3.935639e+20
2.083978e+19
5.873132e+19
2.734895e+19
2.257092e+19
-3.209973e+20
3.322506e+20
5.711013e+20
-1.257339e+19
-1.940837e+20
-3.498336e+20
2.301893e+20
-1.364784e+19
-2.644861e+20
-7.909760e+19
-3.784567e+19
-2.246769e+20
3.940903e+20
2.027338e+20
-3.485342e+19
4.618435e+19
-4.951548e+19
1.887726e+20
1.586736e+20
-2.100369e+20
-2.626983e+20
-4.362038e+20
1.621277e+20
3.035811e+20
-8.324102e+19
-1.277786e+20
-2.762826e+20
7.942270e+20
2.906616e+20
-2.747716e+20
4.961555e+19
-5.149626e+20
6.523577e+19
4.071800e+19
9.066918e+19
-2.796258e+20
-5.358305e+19
-7.836160e+19
3.573932e+20
3.300099e+20
-5.815888e+19
-4.500327e+19
-4.579554e+20
-2.208606e+17
3.655242e+20
7.285706e+19
-3.736011e+19
-2.838844e+20
3.695613e+20
6.931424e+19
-5.470304e+20
-7.549671e+19
-1.731440e+20
4.138892e+20
3.843705e+20
-5.554556e+19
-2.997991e+20
-4.456724e+20
5.257516e+20
3.789155e+20
-5.108362e+19
-3.154999e+20
1.688033e+17
-4.144689e+20
8.188551e+19
3.006675e+20
-2.709796e+19
-9.618533e+19
-2.514175e+20
5.876290e+20
2.669043e+20
-1.073246e+20
-1.318375e+20
-6.244488e+20
4.867718e+19
3.453559e+20
1.512353e+20
-2.907085e+20
-5.240507e+20
3.456081e+20
3.778859e+20
1.694014e+20
9.979967e+19
-2.185031e+20
8.793104e+19
-1.482030e+20
-8.642191e+19
-2.798086e+20
1.660037e+20
-8.490437e+19
5.148259e+20
-2.304905e+19
-4.716862e+20
1.427630e+20
-3.587544e+20
2.223139e+20
4.086542e+20
7.417508e+19
-2.419721e+20
-5.225105e+20
4.409580e+20
2.092946e+20
8.922326e+19
-9.380378e+19
-2.941877e+20
8.296961e+19
6.409860e+19
-2.534130e+19
-8.511741e+19
-4.332581e+20
2.387438e+20
5.292399e+20
6.694382e+18
-1.151947e+20
-3.078335e+20
3.925360e+20
4.662594e+19
-2.718591e+20
-9.777639e+19
-4.241129e+19
-3.231683e+20
2.918759e+20
2.987539e+20
-1.781410e+20
-8.839631e+19
1.429358e+19
3.661004e+20
3.427995e+20
-3.364620e+20
-1.240607e+20
-5.275577e+20
2.798729e+19
2.995594e+20
1.617497e+19
-5.009693e+19
-3.085580e+20
6.821086e+20
1.750957e+20
-3.419990e+20
6.610571e+19
-4.275903e+20
1.671759e+20
1.326497e+20
1.345071e+20
-2.818370e+20
-8.759693e+19
-1.380905e+20
3.022420e+20
2.970861e+20
-7.826533e+19
-4.479874e+19
-4.397598e+20
1.309407e+19
3.849564e+20
8.297311e+19
-3.000544e+19
-2.755163e+20
3.670445e+20
6.838076e+19
-5.411623e+20
-7.735120e+19
-1.738829e+20
4.173270e+20
3.758113e+20
-5.919879e+19
-3.099719e+20
-4.538447e+20
5.237680e+20
3.708100e+20
-5.345256e+19
-3.073766e+20
3.978602e+18
-4.064203e+20
9.668510e+19
3.050431e+20
-1.772499e+19
-9.504431e+19
-2.518098e+20
5.884216e+20
2.557868e+20
-1.183776e+20
-1.370106e+20
-6.366849e+20
4.030151e+19
3.458427e+20
1.456098e+20
-2.854692e+20
-5.205045e+20
3.538559e+20
3.923389e+20
1.750421e+20
1.062720e+20
-2.077769e+20
8.784956e+19
-1.497316e+20
-8.521383e+19
-2.908347e+20
1.605110e+20
-9.598074e+19
5.064410e+20
-2.517184e+19
-4.805716e+20
1.384414e+20
-3.539031e+20
2.218522e+20
4.121643e+20
8.515115e+19
-2.459524e+20
-4.627196e+20
2.944688e+20
4.029113e+20
7.488242e+19
-2.078856e+20
-3.150755e+20
1.486978e+20
1.665061e+20
-1.496033e+20
-5.103573e+19
-3.980282e+20
8.711477e+19
4.505641e+20
1.241393e+20
-1.068348e+20
1.871318e+20
-2.199201e+20
2.130670e+18
-3.219311e+19
-4.827932e+19
-1.734678e+20
-4.203539e+20
3.653748e+20
4.667239e+20
-4.896724e+19
-8.738745e+19
-1.190997e+20
1.903024e+20
2.231626e+20
-3.587296e+20
-4.186966e+19
-3.854175e+20
1.497666e+20
3.652302e+20
-6.863474e+17
-1.391490e+20
-4.180463e+20
5.798901e+20
1.069405e+20
-1.965133e+20
-3.403779e+20
4.752289e+20
-3.373052e+20
3.305867e+20
5.751140e+19
-3.976807e+20
5.438214e+20
-4.957389e+20
7.996265e+18
-2.911737e+20
-1.567403e+20
1.045401e+21
-3.404665e+20
-8.832784e+19
-3.003301e+20
-2.467407e+20
1.007240e+21
-3.256107e+20
3.684276e+20
-4.356767e+20
-7.829188e+20
7.608647e+20
-2.761158e+20
2.403339e+20
-2.728157e+20
-2.991559e+20
6.684107e+20
-3.651061e+20
4.990711e+20
-1.818934e+20
-2.670015e+20
7.728805e+20
-3.160408e+20
-9.699618e+19
-6.547428e+20
-3.099528e+20
8.940955e+20
-3.183437e+20
2.552678e+20
-3.047339e+20
3.790619e+20
-3.058085e+19
-1.377944e+20
5.606087e+20
-6.231857e+20
1.851482e+20
-1.392971e+20
-4.829952e+20
6.692316e+20
-2.720897e+20
1.802331e+20
-2.436960e+20
-2.209835e+20
9.481722e+20
-4.242191e+20
-7.151031e+19
-4.385657e+20
3.119300e+18
8.927622e+20
-3.268357e+20
3.617859e+20
-6.015517e+20
-6.421872e+20
8.816733e+20
-2.136721e+20
5.968456e+19
-3.276219e+20
-1.328971e+20
8.398828e+20
-3.107359e+20
2.233764e+20
-2.748976e+20
-4.152602e+20
7.454032e+20
-3.497760e+20
5.693860e+18
-4.011270e+20
-2.767607e+20
1.002573e+21
-2.986394e+20
5.871799e+18
-1.885033e+20
-1.607258e+20
9.249871e+20
-1.475180e+20
9.602834e+19
-7.358146e+20
-6.330113e+20
8.796234e+20
-3.830447e+20
1.086287e+20
-5.118846e+20
5.974030e+20
4.399348e+19
-9.742631e+19
1.065660e+21
-4.849033e+20
1.104109e+19
-5.578640e+20
-3.691111e+20
8.229282e+20
-3.815568e+20
1.875645e+20
-4.514721e+20
-4.862920e+20
7.431038e+20
1.073226e+20
1.755027e+20
-4.833995e+20
-1.834754e+19
8.519078e+20
-3.487815e+20
3.589412e+19
-2.239616e+20
-4.749896e+20
6.520574e+20
-3.443477e+20
1.091777e+20
-2.874146e+20
-2.117884e+20
9.899140e+20
-3.696197e+20
-7.274521e+19
-2.560610e+20
-2.189521e+20
1.005392e+21
-3.574003e+20
3.053674e+20
-4.883541e+20
-8.132387e+20
7.741141e+20
-2.174973e+20
3.158918e+20
-1.925216e+20
-2.335884e+20
6.872435e+20
-3.900752e+20
4.439592e+20
-3.088014e+20
-2.561599e+20
5.707734e+20
-3.406408e+20
1.431067e+19
-8.359237e+20
4.207306e+20
6.877260e+19
-1.263541e+20
8.783971e+20
-1.409884e+20
5.283789e+19
-3.309718e+20
-3.900864e+20
8.791463e+20
-4.765340e+20
1.043066e+20
-2.854342e+20
-6.152381e+20
6.283022e+20
-4.424771e+20
4.462545e+20
-1.150120e+20
-1.373689e+20
1.089102e+21
-2.806252e+20
-3.837650e+19
-5.672564e+20
-2.144207e+20
6.962582e+20
-4.346065e+20
3.759220e+20
-4.933813e+20
-5.160676e+20
9.845239e+20
-1.845016e+20
6.098604e+19
-5.007901e+20
-9.955910e+19
7.575826e+20
-3.961320e+20
2.065120e+20
-5.468098e+19
-3.968517e+20
8.500049e+20
-2.381495e+20
7.152312e+18
-4.793227e+20
-3.599939e+20
9.386014e+20
-3.419102e+20
-3.864683e+19
-2.601241e+20
-2.356694e+20
8.847838e+20
-1.788047e+20
2.635962e+20
-9.112170e+20
1.683375e+20
1.661265e+20
-1.488613e+20
6.473524e+20
-4.359380e+20
6.292294e+18
-2.578343e+20
-9.226021e+19
1.183324e+21
-3.527913e+20
7.633397e+19
-6.301752e+20
-4.255741e+20
6.171894e+20
-4.930511e+20
2.899528e+20
-2.224410e+20
-2.501938e+20
9.002117e+20
1.378486e+20
1.053029e+20
-6.346135e+20
-1.988756e+20
6.982610e+20
-4.827320e+20
9.318672e+19
-1.964377e+20
-3.775246e+20
8.426892e+20
-1.685482e+20
1.493043e+20
-3.018169e+20
-5.059294e+20
9.440365e+20
-3.984343e+20
-1.976401e+20
-3.423791e+20
-1.496019e+20
1.157857e+21
-7.987815e+19
3.951497e+20
-4.985387e+20
-7.636425e+20
5.908643e+20
-1.180472e+20
1.615784e+20
-4.534534e+20
-3.733830e+20
6.787282e+20
-3.091604e+20
3.403258e+20
-3.239439e+20
4.645464e+20
-1.886884e+20
-8.704095e+19
7.868902e+20
-4.385416e+20
1.765118e+19
-2.186196e+20
-4.229899e+20
4.942450e+20
-7.909186e+19
1.471805e+20
-4.724437e+20
-6.208485e+20
7.464876e+20
-2.685287e+20
3.963747e+20
8.433801e+19
-2.343673e+20
8.767436e+20
-4.256448e+20
2.650893e+20
-4.002151e+20
-4.481831e+20
8.306622e+20
-4.653775e+20
-1.460301e+20
-5.797897e+20
-1.890774e+20
8.870150e+20
-2.775392e+20
4.340122e+20
-2.183308e+20
-1.609355e+20
7.211936e+20
-1.679382e+20
-1.795767e+19
-4.569687e+20
-1.986683e+20
5.115810e+20
-5.633953e+20
2.447269e+20
7.206762e+19
-1.828100e+20
8.319870e+20
-3.621811e+20
-7.788443e+19
-5.154236e+20
-3.692226e+20
9.648020e+20
-2.963308e+20
5.141147e+19
-4.354125e+20
4.921033e+20
4.934890e+18
-7.844480e+19
7.821207e+20
-7.917934e+20
-9.591442e+19
-6.653604e+19
-9.819580e+19
8.771855e+20
-2.607729e+20
-4.442435e+19
-5.537213e+20
-4.879618e+20
8.711026e+20
-4.669268e+20
2.095161e+20
-3.145569e+20
-4.242140e+19
9.666074e+20
-2.759348e+20
3.497958e+20
-3.001099e+20
-4.315003e+20
6.829389e+20
-6.166144e+19
-5.992075e+19
-7.371196e+20
-2.474976e+20
6.891828e+20
-4.505107e+20
1.402258e+20
-1.340285e+20
-3.050937e+20
9.724219e+20
-2.320529e+20
4.376583e+20
-3.209058e+20
-3.629309e+20
6.952373e+20
-3.260364e+20
1.548107e+19
-5.565705e+20
-2.139167e+20
8.868528e+20
-3.148720e+20
3.958157e+20
-3.357297e+20
-6.246321e+20
6.306574e+20
-1.588709e+20
1.484778e+20
-6.494765e+20
4.430374e+20
-4.524126e+19
-6.501684e+19
9.162536e+20
-2.773335e+20
2.189387e+19
-6.584953e+20
-2.513174e+20
9.054867e+20
-2.410288e+20
1.309283e+20
-2.540641e+20
-5.326451e+20
4.215134e+20
-5.558372e+19
2.805960e+20
-2.817012e+20
-4.670998e+20
8.093624e+20
-3.150845e+20
2.467061e+20
-9.918687e+19
-4.034054e+20
7.768521e+20
-4.325694e+20
3.297329e+20
-2.829231e+20
-3.177690e+20
9.646466e+20
-5.136445e+20
-1.909421e+19
-6.497658e+20
-3.359723e+20
7.978915e+20
-2.831256e+20
4.645653e+20
-2.025739e+20
-1.501050e+20
7.474274e+20
-1.330901e+20
2.452701e+19
-4.249611e+20
-2.123587e+20
4.631727e+20
-6.474645e+20
1.559848e+20
8.530124e+18
-2.134595e+20
8.544813e+20
-2.865302e+20
2.066549e+19
-4.066480e+20
-2.690828e+20
1.022380e+21
-2.750505e+20
2.249226e+19
-5.009476e+20
4.049471e+20
-1.019961e+20
-1.782584e+20
7.079112e+20
-8.444443e+20
-1.117366e+20
-4.863377e+19
1.213804e+19
7.598454e+20
1.246470e+20
-1.776659e+20
-3.086814e+20
-6.620757e+20
1.024717e+21
-2.335363e+20
-1.703465e+20
-1.523633e+20
-2.516884e+20
1.108368e+21
-5.961839e+20
2.547598e+20
-4.074272e+20
-2.087417e+20
5.003638e+20
1.001593e+20
-5.484858e+19
-3.298897e+20
-6.983298e+20
9.654715e+20
-7.018366e+20
4.038383e+20
-1.575232e+20
1.359026e+20
8.594737e+20
-2.492852e+20
3.781400e+20
-9.382944e+20
-3.046861e+20
5.293703e+20
-2.662958e+19
-2.026172e+20
-3.694662e+20
-4.316796e+20
1.183413e+21
-4.014871e+20
8.029509e+20
-5.973182e+20
-2.749229e+20
4.498367e+20
-7.052980e+19
-2.170524e+20
-4.823508e+20
2.828481e+20
2.406927e+20
-2.754036e+20
1.071444e+21
-5.865703e+20
3.310679e+19
-5.002978e+20
-5.923544e+20
1.208087e+21
-2.664265e+20
4.396250e+20
-5.288852e+20
-4.509399e+20
1.080096e+20
1.644397e+20
2.039674e+20
-7.966154e+19
-4.886925e+20
1.130584e+21
-6.204563e+20
3.338116e+20
-3.750881e+20
-1.030649e+20
5.160721e+20
-9.073106e+19
3.415601e+19
-3.947013e+20
-2.711871e+20
5.802660e+20
-2.336564e+20
-5.745525e+19
-3.162551e+20
-5.648185e+20
9.774210e+20
-4.854762e+20
7.820237e+20
-2.089781e+20
5.355050e+19
6.656590e+20
9.969787e+19
-3.991905e+20
-4.575766e+20
-5.672063e+20
6.630283e+20
-8.260662e+20
3.884001e+20
-2.321367e+20
-1.665413e+20
1.006049e+21
-6.242631e+20
3.882094e+20
-6.036382e+20
8.478647e+20
-2.084820e+19
-3.362944e+18
2.713149e+20
-2.100082e+20
-1.365713e+20
-1.238086e+20
-5.882229e+20
1.151637e+21
-8.827463e+20
4.223712e+19
-6.931444e+20
1.298754e+20
6.611714e+20
-2.205250e+19
2.145587e+20
-2.259993e+20
-3.114250e+20
1.097680e+21
-9.117540e+19
-3.939627e+20
-4.312039e+20
-3.002930e+20
1.246281e+21
-4.793234e+20
2.411224e+20
-5.477761e+20
-3.842164e+20
3.998713e+20
9.892354e+19
2.728785e+19
-2.195490e+20
-6.312835e+20
9.694124e+20
-7.505022e+20
3.215821e+20
-2.131758e+20
1.357964e+20
9.245223e+20
-1.173296e+20
5.276648e+20
-8.064938e+20
-2.246186e+20
5.214268e+20
-1.150352e+20
-3.504598e+20
-5.605539e+20
-6.117771e+20
1.044297e+21
-4.767680e+20
8.464222e+20
-7.482666e+20
5.673882e+20
-2.583486e+20
1.936190e+20
4.307203e+20
-3.175011e+20
-3.726530e+19
-1.060091e+20
-3.709487e+20
1.188441e+21
-4.424052e+20
2.899742e+19
-6.648255e+20
-8.145035e+20
1.046888e+21
-2.714851e+20
5.966352e+20
-2.943320e+20
-2.219326e+20
2.412142e+20
1.589440e+20
8.217802e+19
-2.412407e+20
-7.878314e+20
1.116940e+21
-6.934305e+20
2.982470e+20
-2.695174e+20
8.723090e+19
7.036793e+20
1.730348e+19
5.010243e+19
-4.255542e+20
-3.277298e+20
5.281330e+20
-2.714265e+20
-9.821335e+19
-3.554202e+20
-6.007979e+20
9.308232e+20
-5.228451e+20
7.515912e+20
-2.334946e+20
5.021555e+19
6.757159e+20
4.721304e+19
-1.718146e+20
-6.183451e+20
-6.280958e+20
1.080779e+21
-7.431669e+20
2.945370e+20
-4.948319e+20
6.397583e+20
3.198417e+20
-6.341398e+20
9.900854e+20
-7.434403e+20
1.762338e+20
-5.266455e+20
-4.994162e+19
5.798022e+20
-9.291365e+19
1.470214e+20
-2.348896e+20
-8.254712e+20
1.099897e+21
-6.757768e+20
3.922655e+20
-3.645123e+20
3.481423e+20
7.365118e+20
-9.721968e+19
2.890939e+19
-4.761558e+20
-5.946477e+20
8.444969e+20
-2.878969e+20
-5.026390e+20
-4.428399e+20
-2.396273e+20
1.366678e+21
-3.232849e+20
3.921521e+20
-4.109375e+20
-2.669731e+20
4.807032e+20
1.637260e+20
6.816599e+19
-1.934961e+20
-6.193059e+20
9.485620e+20
-7.991883e+20
2.457354e+20
-3.294863e+20
-3.818257e+18
7.795996e+20
-2.643584e+20
4.159050e+20
-8.766124e+20
-2.328565e+20
5.825369e+20
-2.933341e+18
-1.609849e+20
-6.017845e+20
2.774353e+20
3.294134e+20
-2.459993e+20
1.421184e+21
-6.697044e+20
1.627190e+20
-6.882422e+20
2.951804e+19
4.847511e+20
-2.347016e+20
-8.091973e+19
-3.088495e+20
-6.225003e+20
1.027077e+21
-4.405589e+20
2.163615e+20
-3.711632e+20
-5.072370e+20
1.281586e+21
-1.752567e+20
6.077756e+20
-4.883464e+20
-3.038946e+20
3.067537e+20
-2.329541e+20
7.624248e+19
-2.763559e+19
-7.001508e+20
1.027403e+21
-8.397396e+20
1.898789e+20
-3.056388e+20
9.186958e+19
6.950421e+20
-4.004062e+18
4.218901e+19
-4.096336e+20
-1.893939e+20
5.131485e+20
7.721288e+19
2.494184e+19
-3.867658e+20
-6.149291e+20
9.274496e+20
-5.417519e+20
4.436567e+20
-2.398803e+20
-1.436978e+20
4.892138e+20
4.882260e+19
1.669453e+19
-6.345329e+20
1.049835e+20
2.784700e+20
-6.800482e+20
8.956220e+20
-5.676954e+20
2.910203e+20
7.861747e+19
-4.403462e+20
1.251750e+21
-6.757637e+20
5.477772e+19
-6.753599e+20
-2.314477e+20
6.444167e+20
-3.515173e+19
3.671010e+20
-2.888293e+20
-8.211677e+20
1.148220e+21
-5.329287e+20
3.582509e+20
-6.059098e+20
7.447880e+19
6.546692e+20
-8.769423e+19
2.601865e+20
-3.435709e+20
-4.139967e+20
6.655782e+20
-3.853602e+20
-4.977613e+20
-2.396014e+20
-1.308329e+20
1.286954e+21
-4.479459e+20
3.956338e+20
-4.186305e+20
-1.242028e+20
4.762502e+20
1.773886e+20
-2.394649e+20
-3.861709e+20
-6.482088e+20
1.168655e+21
-6.554208e+20
2.242766e+20
-3.955404e+20
3.039744e+19
7.978739e+20
-9.980539e+19
4.487181e+20
-1.061328e+21
2.074343e+20
-4.280149e+20
1.507951e+20
6.391261e+20
-3.257245e+20
-5.727503e+19
-8.171619e+19
-2.945142e+20
1.564344e+21
-4.013916e+20
1.190785e+20
-8.723722e+20
-5.376051e+20
1.448362e+20
-2.284818e+20
3.627641e+20
1.870479e+20
-2.861703e+20
1.070448e+21
5.655910e+19
-3.280926e+20
-3.745579e+20
-4.238093e+20
9.076832e+20
-5.565422e+20
1.352314e+20
-5.322182e+20
-1.607725e+19
8.649824e+20
-9.160866e+19
2.225374e+20
-2.658434e+20
-9.358202e+20
9.168822e+20
-6.498247e+20
3.622181e+20
-3.260431e+20
4.688401e+19
5.452137e+20
-8.873171e+19
2.969817e+20
-1.473337e+20
-1.533314e+20
3.828740e+20
-5.117055e+19
-1.638505e+20
-3.968739e+20
-7.193448e+20
9.273105e+20
-8.017240e+20
3.689588e+20
-3.863547e+20
9.117177e+20
-1.115439e+20
2.615405e+20
5.691844e+20
-4.923913e+20
-1.329184e+20
1.029393e+18
-7.909117e+20
8.984415e+20
-6.170788e+20
1.211911e+20
-1.578922e+20
-6.336279e+20
1.228423e+21
-5.032648e+20
3.618876e+20
-3.326447e+20
1.471046e+19
7.278588e+20
-1.192877e+20
1.515789e+20
-5.433142e+20
-1.027923e+21
1.030626e+21
-5.276673e+20
4.599208e+20
-4.574173e+20
2.297013e+20
7.544098e+20
-6.208667e+19
2.152032e+20
-4.506823e+20
-5.379497e+20
5.657895e+20
-4.475133e+20
-4.920669e+20
-1.747412e+20
-2.754367e+19
1.416124e+21
-3.389813e+20
4.655485e+20
-3.996084e+20
-1.721661e+20
3.813752e+20
5.897016e+19
-3.724023e+20
-4.930135e+20
-7.148398e+20
1.151044e+21
-6.075050e+20
3.423955e+20
-5.087830e+20
8.685422e+20
3.283064e+19
9.030924e+19
1.013251e+21
-9.846032e+20
-2.512551e+20
-6.237776e+20
-2.294818e+20
7.885919e+20
-2.621754e+19
-8.983819e+18
-3.007594e+20
-5.751945e+20
1.438754e+21
-3.080317e+20
4.392194e+20
-7.777991e+20
-5.250422e+19
2.068415e+20
-3.507513e+20
6.503389e+19
3.059217e+20
-3.757163e+20
8.365606e+20
-9.897275e+19
-3.511793e+20
-2.733926e+20
-5.115515e+20
1.145363e+21
-5.588451e+20
4.147943e+19
-5.413689e+20
6.371719e+19
9.443788e+20
-7.925078e+19
1.970147e+20
-2.736485e+20
-9.049854e+20
9.924597e+20
-5.607951e+20
4.052369e+20
-3.419915e+20
-4.406355e+19
4.075967e+20
-2.344062e+20
1.670985e+20
-2.224802e+20
-1.568255e+20
4.330086e+20
4.619419e+19
-3.777111e+19
-2.806974e+20
-6.152284e+20
9.947219e+20
-7.691618e+20
3.701632e+20
-4.248581e+20
8.524635e+20
-1.779415e+20
1.825652e+20
4.968110e+20
-5.524953e+20
-1.793885e+20
-2.370266e+19
-7.976374e+20
9.160266e+20
-5.800762e+20
1.777304e+20
-9.584953e+19
-5.710833e+20
1.283069e+21
-4.651214e+20
3.987128e+20
-3.213149e+20
8.787411e+17
6.888377e+20
-1.697109e+20
9.403800e+19
-5.968219e+20
-1.078761e+21
9.905846e+20
-5.534213e+20
4.488972e+20
-4.334609e+20
2.650180e+20
7.975428e+20
-1.055001e+19
1.950291e+20
-2.073960e+20
-7.518923e+20
6.161214e+20
-2.958820e+20
-4.829639e+20
-3.015163e+20
-1.405378e+20
1.377820e+21
-3.124270e+20
4.962522e+20
-4.025651e+20
-2.174812e+20
3.251124e+20
2.060901e+19
-3.665099e+20
-4.427978e+20
-6.412902e+20
1.240282e+21
-5.544108e+20
4.102573e+20
-6.837802e+20
1.012362e+21
-3.959343e+19
-5.694189e+19
9.736176e+20
-9.248301e+20
-1.302155e+20
-7.671870e+20
-7.359207e+19
7.149553e+20
-1.683776e+20
-2.870371e+19
-2.130178e+20
-4.350604e+20
1.305516e+21
-1.725638e+20
3.526669e+20
-9.133984e+20
-4.084217e+19
3.615877e+20
-2.053232e+20
1.107996e+20
2.459607e+20
-4.801618e+20
7.427465e+20
-1.474299e+20
-3.625361e+20
-2.629710e+20
-4.989063e+20
1.148712e+21
-5.435383e+20
5.457026e+19
-5.228604e+20
8.749935e+19
9.785731e+20
-4.526027e+19
2.250796e+20
-2.672065e+20
-9.205315e+20
9.571145e+20
-6.102321e+20
3.717293e+20
-3.716097e+20
-6.251217e+19
4.007756e+20
-2.216766e+20
1.927908e+20
-1.863642e+20
-1.256229e+20
4.555326e+20
5.550571e+19
-1.526470e+19
-5.148260e+20
7.648429e+19
9.821765e+19
-6.844649e+20
8.777231e+20
-3.449732e+20
5.313982e+20
-4.701409e+20
1.977602e+20
6.751123e+20
-9.029468e+19
-3.262787e+20
-8.990678e+19
-8.604053e+20
7.461917e+20
-7.407002e+20
1.501361e+20
5.963194e+19
-3.361135e+20
1.451058e+21
-4.386326e+20
2.665652e+20
-5.164544e+20
-1.696015e+20
6.053337e+20
-1.450230e+20
2.191859e+20
-4.430788e+20
-9.322123e+20
1.078628e+21
-5.548072e+20
3.765350e+20
-5.663610e+20
1.355364e+20
7.018130e+20
-5.783504e+19
1.999067e+20
-1.440282e+20
-6.687497e+20
7.180019e+20
-2.047112e+20
-4.376115e+20
-2.373623e+20
-3.316741e+20
1.506767e+21
-4.038282e+20
3.140907e+20
-4.828615e+20
-1.828569e+20
4.276725e+20
-1.023633e+20
-1.468615e+20
-6.962784e+20
-7.591671e+18
4.028653e+20
-3.018821e+20
1.049848e+21
-5.948699e+20
5.810389e+20
-4.720552e+20
-1.833747e+20
1.235368e+21
-8.520520e+20
2.555618e+20
-8.533999e+20
-4.120457e+20
5.235574e+20
-1.233223e+20
1.444132e+20
-3.868152e+19
-3.120776e+20
1.343934e+21
-1.853695e+20
2.903129e+20
-9.597134e+20
-2.927162e+20
3.876877e+20
-1.430462e+20
-1.896520e+20
2.460902e+20
-6.750472e+19
7.334989e+20
-6.790191e+19
-4.611437e+20
-1.614642e+20
-4.029663e+20
6.519593e+20
-4.246735e+20
4.319652e+20
-8.703643e+20
1.522977e+20
1.153370e+21
-3.165890e+20
2.690727e+20
-2.118868e+20
-5.812436e+20
9.888204e+20
-9.590425e+20
3.490959e+20
-2.361546e+20
-5.240806e+20
4.839093e+20
6.685340e+19
-1.546120e+20
-2.818530e+20
9.352876e+20
-4.953395e+20
3.512332e+20
5.936533e+20
-1.805630e+20
-3.550070e+20
-6.922419e+20
-8.007188e+20
1.204554e+21
-5.382040e+20
7.451911e+20
-2.264839e+20
-3.538058e+20
6.364619e+20
1.693252e+20
-3.866187e+20
2.060521e+20
-6.252382e+20
1.128027e+21
-7.956307e+20
-3.536308e+20
-1.107106e+20
-2.843736e+20
9.899201e+20
-2.911590e+20
6.515075e+20
-8.356101e+20
-2.690547e+19
8.961827e+20
-3.487135e+20
2.474380e+20
-4.960717e+20
-7.593390e+20
9.905226e+20
-9.329886e+20
4.492621e+20
-2.435610e+20
-9.923443e+19
9.955157e+20
3.817892e+20
-1.568429e+20
-1.204315e+20
-5.461837e+20
3.314389e+20
-3.078106e+20
-5.679319e+20
-1.429960e+20
-2.668137e+20
9.610115e+20
-2.642450e+20
8.464045e+20
-8.534525e+20
8.199913e+20
-7.389448e+19
-1.723491e+20
3.043099e+20
-3.759334e+20
-5.641953e+20
-9.761192e+18
-5.891088e+20
1.224393e+21
-3.425153e+20
1.408466e+20
-4.104600e+20
9.710092e+19
8.472621e+20
-6.818322e+20
6.573244e+20
-8.693445e+20
-2.742880e+20
9.324060e+20
-2.509280e+20
5.747502e+19
-3.600986e+20
-4.515009e+20
1.261612e+21
-7.766979e+20
4.671857e+20
-4.858158e+20
-3.123796e+20
4.874785e+20
1.047625e+19
-1.635877e+20
2.805417e+20
-4.625620e+20
1.045860e+21
-1.279207e+20
-6.951407e+20
-2.058924e+20
-2.756438e+20
7.686291e+20
-4.061994e+20
3.766610e+20
-9.116079e+20
2.022069e+20
1.181339e+21
-4.006070e+19
2.736371e+19
-2.795113e+20
-5.904351e+20
8.446828e+20
-1.180279e+21
2.592116e+20
-4.023545e+20
4.017827e+20
-1.076640e+20
4.050870e+20
4.726836e+20
-2.055807e+20
4.992051e+20
-9.352267e+20
2.084377e+20
7.027509e+20
-2.429265e+19
-3.345611e+20
-8.352606e+20
-9.957237e+20
1.075801e+21
-5.237776e+20
9.229419e+20
3.181997e+19
-8.928034e+19
8.124172e+20
2.012326e+20
-4.961935e+20
1.747999e+19
-8.453785e+20
9.608583e+20
-8.780647e+20
-3.550845e+20
-3.935760e+19
-1.927230e+20
1.090904e+21
-2.145126e+20
6.809083e+20
-8.554223e+20
-6.724201e+19
8.366148e+20
-3.839600e+20
2.442134e+20
-4.746915e+20
-7.087202e+20
1.038872e+21
-8.776108e+20
4.909277e+20
-2.355770e+20
-1.326513e+20
9.390477e+20
2.937646e+20
-2.377397e+20
-1.840528e+20
-5.903171e+20
3.258307e+20
-2.910771e+20
-4.783263e+20
-2.876222e+20
5.315259e+20
1.639485e+20
-8.894536e+19
1.393571e+21
-7.662490e+20
4.563130e+20
-3.708385e+20
-4.544384e+20
6.951857e+20
-2.299353e+20
-6.742163e+20
-1.683443e+20
-7.117394e+20
1.158091e+21
-3.607085e+20
2.184645e+20
-2.410930e+20
3.052329e+20
1.033263e+21
-6.026306e+20
6.338936e+20
-1.078886e+21
-1.570433e+20
2.041623e+20
5.486939e+19
1.363879e+20
-4.942006e+20
-4.693990e+20
1.419873e+21
-5.803197e+20
5.325622e+20
-5.622087e+20
-4.701344e+20
3.377403e+20
-6.436240e+19
-1.302733e+20
3.777911e+20
-3.233862e+20
1.177090e+21
-4.525698e+19
-6.619329e+20
-2.375278e+20
-3.351172e+20
6.902068e+20
-4.988071e+20
2.785767e+20
-9.893436e+20
1.358552e+20
1.158374e+21
-2.057109e+19
1.069563e+20
-4.272181e+20
2.047516e+20
7.358888e+19
-9.729696e+20
8.487902e+20
-2.964724e+20
5.611890e+19
-4.813172e+20
3.081844e+20
6.068193e+20
-5.655971e+19
5.105480e+20
-1.100765e+21
-9.375456e+18
5.603963e+20
-1.365029e+19
-1.709949e+20
-5.720449e+20
-7.509341e+20
1.240181e+21
-4.884120e+20
8.255909e+20
-1.413736e+20
-2.936978e+20
6.591921e+20
1.281196e+20
-4.924618e+20
7.570356e+19
-7.505408e+20
1.039360e+21
-8.172147e+20
-3.284558e+20
-5.452112e+19
-2.247621e+20
1.042587e+21
-2.363640e+20
6.901912e+20
-8.237038e+20
-2.547604e+19
8.885151e+20
-3.568839e+20
2.573481e+20
-4.879341e+20
-7.586235e+20
9.712345e+20
-9.673971e+20
4.210655e+20
-2.757621e+20
-1.418660e+20
9.606022e+20
3.568810e+20
-1.664979e+20
-5.385603e+19
-5.948511e+20
5.196508e+20
-2.670117e+20
-5.669565e+20
-3.412562e+20
5.110670e+20
1.162129e+20
-1.922004e+20
1.272072e+21
-8.800543e+20
4.093768e+20
-3.471019e+20
-3.978941e+20
8.947670e+20
-4.439267e+20
-2.116962e+20
-1.410872e+20
-8.848431e+20
1.145792e+21
-2.082256e+20
3.257867e+20
-2.733977e+20
1.515361e+20
8.466000e+20
-7.257910e+20
5.828251e+20
-1.057781e+21
-1.141416e+20
2.270185e+20
4.810561e+19
1.317746e+20
-4.904374e+20
-4.159989e+20
1.517244e+21
-4.680925e+20
6.415201e+20
-5.037110e+20
-4.558037e+20
2.979954e+20
-1.568169e+20
-2.576748e+20
2.562630e+20
-4.338769e+20
1.118247e+21
-5.171784e+19
-6.312767e+20
-1.712480e+20
-2.676793e+20
7.684054e+20
-4.280959e+20
3.247406e+20
-9.739874e+20
1.373576e+20
1.132715e+21
-4.247281e+19
8.955589e+19
-4.470593e+20
1.946144e+20
5.402717e+19
-9.786012e+20
8.487484e+20
-3.028373e+20
3.791715e+19
-4.967751e+20
2.783609e+20
5.899079e+20
-6.220343e+19
5.084864e+20
-1.086500e+21
3.217247e+18
5.952972e+20
3.440590e+19
-1.245150e+20
-5.375149e+20
-7.201482e+20
1.243210e+21
-4.920442e+20
8.094414e+20
-1.789642e+20
-3.377054e+20
5.965355e+20
7.942788e+19
-5.259618e+20
5.334607e+19
-7.626845e+20
1.052449e+21
-7.997617e+20
-2.865835e+20
7.628578e+17
-1.736034e+20
1.093700e+21
-2.093608e+20
7.145327e+20
-8.223492e+20
6.809421e+19
5.571526e+20
-1.618098e+19
1.551254e+20
-7.591527e+20
-8.343934e+20
1.075087e+21
-8.579060e+20
4.042829e+20
-3.685580e+20
-2.217057e+20
9.586469e+20
4.389359e+20
5.868455e+18
-2.372811e+20
3.453218e+20
-5.817841e+20
-1.921457e+20
1.562930e+19
-3.008668e+20
7.958554e+19
-2.447220e+20
-1.690768e+20
1.585308e+21
-5.572424e+20
4.909595e+20
-5.208815e+20
-7.051583e+20
6.251446e+20
-5.344317e+20
-1.134319e+20
1.059891e+20
-6.063311e+20
1.342734e+21
-1.540892e+20
2.526093e+20
-4.455903e+20
-2.769123e+19
7.164137e+20
-7.821024e+20
6.144375e+20
-9.807351e+20
-5.249988e+18
3.225698e+20
9.281815e+19
1.116714e+20
-5.522383e+20
-5.160479e+20
1.431201e+21
-5.200931e+20
6.285252e+20
-4.638828e+20
-3.908069e+20
3.953184e+20
-5.527394e+19
-1.826319e+20
2.853290e+20
-4.428570e+20
1.055478e+21
-1.326098e+20
-7.187940e+20
-2.581172e+20
-3.273125e+20
7.283740e+20
-4.190750e+20
4.030798e+20
-1.137107e+21
9.152671e+20
3.319361e+20
1.129927e+20
6.447592e+20
-3.523637e+20
-1.585469e+20
-2.906386e+20
-1.052926e+21
1.025962e+21
-9.176617e+19
1.014578e+20
-6.146924e+20
8.488471e+19
4.306792e+20
-7.663828e+19
6.409994e+20
-8.790503e+20
2.056893e+20
6.973151e+20
2.630998e+19
-2.352385e+20
-7.115477e+20
-8.996570e+20
1.125251e+21
-5.392600e+20
8.561731e+20
-6.855295e+19
-2.248120e+20
8.183671e+20
-2.327440e+20
6.564544e+19
-2.707772e+20
-1.015727e+21
1.090707e+21
-6.875466e+20
-2.879141e+20
-7.696956e+19
-2.382951e+20
1.097294e+21
-1.293834e+20
8.014674e+20
-7.605943e+20
6.688214e+19
4.787244e+20
-6.181179e+19
-1.456588e+20
-5.805761e+20
-8.690834e+20
9.827235e+20
-7.928608e+20
6.359649e+20
-4.297672e+20
5.548008e+20
5.440496e+19
4.738905e+20
4.609506e+20
-1.799749e+20
-7.645403e+18
-9.090825e+20
-2.461811e+20
1.709956e+20
-1.278152e+20
9.924650e+19
-3.647304e+20
-3.339802e+20
1.492012e+21
-5.086413e+20
6.874865e+20
-2.705207e+20
-4.759604e+20
7.488449e+20
-5.588240e+20
-2.553930e+20
-1.156310e+20
-8.139667e+20
1.199589e+21
-2.134289e+20
2.707110e+20
-3.623004e+20
6.347357e+19
8.032712e+20
-7.286336e+20
6.172499e+20
-1.007756e+21
-5.942454e+19
2.907822e+20
9.682539e+19
1.503356e+20
-4.874785e+20
-4.263598e+20
1.504642e+21
-4.617465e+20
6.484310e+20
-5.019144e+20
-4.762141e+20
2.682415e+20
-1.995291e+20
-3.017607e+20
2.001501e+20
-4.885303e+20
1.071991e+21
-7.128267e+19
-5.690263e+20
-3.370375e+20
5.290841e+20
-4.537922e+19
3.756023e+19
1.801063e+19
5.190911e+20
-4.608457e+20
-5.192856e+20
6.054511e+20
4.070494e+20
1.084747e+21
-1.400457e+21
-9.750474e+20
-5.525594e+20
4.325674e+20
1.592143e+21
-8.813944e+20
-9.679519e+20
9.931132e+20
1.328321e+20
1.698740e+21
-9.795523e+20
-1.356593e+21
6.142815e+20
-7.207014e+19
1.646579e+21
-1.270835e+21
-1.215650e+21
-2.477504e+20
5.708826e+20
1.014331e+21
-4.260667e+20
-7.361839e+20
4.784906e+20
4.747088e+20
1.547229e+21
-1.074157e+21
-9.304263e+20
-3.766559e+20
6.694486e+20
1.025423e+21
-1.455047e+21
-7.653728e+20
3.481400e+20
5.892155e+20
1.466796e+21
-4.922755e+20
-1.538049e+21
6.161639e+20
2.998756e+19
1.685482e+21
-1.241510e+21
-1.134072e+21
-1.366795e+20
6.438453e+20
9.754021e+20
-5.602975e+20
-9.027931e+20
3.893445e+20
3.767612e+20
1.958420e+21
-1.364637e+21
-7.803029e+20
2.007298e+20
-1.853193e+20
1.380373e+21
-1.736478e+21
-8.386245e+20
3.205087e+20
5.253130e+20
1.496160e+21
-2.768376e+20
-1.228303e+21
7.332146e+20
3.668753e+20
1.101126e+21
-1.184097e+21
-1.248569e+21
-5.806817e+20
2.095552e+21
-8.103510e+20
-3.949298e+20
1.995664e+20
1.082711e+20
1.119672e+21
-6.196367e+20
-8.807696e+20
1.114503e+20
9.686535e+20
7.065306e+20
-8.853910e+20
-1.742498e+21
6.051089e+20
3.867045e+20
1.357623e+21
-9.907750e+20
-2.660060e+20
1.638502e+20
8.137432e+20
1.126274e+21
-1.307406e+21
-1.727480e+21
3.561401e+20
-6.608910e+19
2.041458e+21
-1.030493e+21
-6.537836e+20
6.534309e+20
-3.389211e+20
1.615017e+21
-9.488318e+20
-1.140155e+21
1.285348e+20
5.057999e+20
7.299301e+20
-4.553825e+20
-1.018669e+21
8.812752e+20
4.394476e+20
1.046952e+21
-1.221673e+21
-6.831304e+20
-3.871557e+20
3.566972e+20
1.349455e+21
-1.167222e+21
-1.153279e+21
9.462083e+20
1.865010e+20
1.804560e+21
-8.926884e+20
-1.288673e+21
6.596148e+20
-4.210476e+19
1.673073e+21
-1.228317e+21
-1.184019e+21
-2.190982e+20
5.748252e+20
9.734872e+20
-4.986587e+20
-8.451727e+20
3.797850e+20
4.030756e+20
1.510671e+21
-1.071509e+21
-8.849583e+20
-2.358439e+20
5.688278e+20
1.378022e+21
-1.411138e+21
-8.681721e+20
3.187611e+20
6.552069e+20
1.505506e+21
-5.558786e+20
-1.679906e+21
4.847182e+20
-5.112758e+19
1.692138e+21
-1.178768e+21
-1.067436e+21
-8.739608e+19
6.469566e+20
9.674465e+20
-5.655032e+20
-8.972315e+20
4.091411e+20
4.209192e+20
1.995054e+21
-1.327052e+21
-7.596039e+20
1.880506e+20
-2.182062e+20
1.317930e+21
-1.790608e+21
-8.782186e+20
2.941842e+20
5.111500e+20
1.506528e+21
-2.665396e+20
-1.142795e+21
2.983767e+20
1.796507e+21
-6.345196e+20
-9.682645e+20
-1.955042e+20
-3.942512e+20
1.452822e+21
-1.406783e+21
-3.910304e+20
6.705159e+20
6.210206e+20
1.305204e+21
-8.428505e+20
-1.319498e+21
-2.938295e+20
8.132104e+20
8.414388e+20
-6.514746e+20
-1.231635e+21
5.469778e+20
4.086878e+20
1.342944e+21
-1.204448e+21
-5.764223e+20
-2.177440e+19
8.482986e+20
1.371957e+21
-9.937812e+20
-1.362018e+21
1.724668e+20
2.767640e+20
1.823215e+21
-1.484096e+21
-9.235127e+20
5.963107e+20
-3.284850e+20
1.573909e+21
-9.928585e+20
-1.111821e+21
2.712796e+20
7.406574e+20
9.973370e+20
-2.621164e+20
-9.369070e+20
8.310741e+20
2.750713e+20
8.341778e+20
-1.441648e+21
-8.384094e+20
-4.594263e+20
3.589492e+20
1.405928e+21
-1.067031e+21
-1.054062e+21
1.047447e+21
2.703342e+20
1.852960e+21
-8.703977e+20
-1.308152e+21
6.292004e+20
-8.236212e+19
1.620834e+21
-1.289125e+21
-1.231602e+21
-2.657118e+20
5.585027e+20
9.848409e+20
-4.711739e+20
-7.950330e+20
4.269327e+20
4.633855e+20
1.568372e+21
-1.035275e+21
-8.812704e+20
-2.533989e+20
5.126348e+20
1.313493e+21
-1.479505e+21
-9.395215e+20
2.669494e+20
6.145153e+20
1.507840e+21
-5.146475e+20
-1.613212e+21
5.638205e+20
4.228696e+19
1.766846e+21
-1.112053e+21
-1.024789e+21
-8.629706e+19
6.158871e+20
8.900476e+20
-6.545773e+20
-9.910695e+20
3.149741e+20
3.355487e+20
1.943692e+21
-1.356362e+21
-7.320659e+20
1.811308e+20
6.515730e+19
1.171661e+21
-1.664251e+21
-6.300984e+20
4.033700e+20
4.687325e+20
1.427929e+21
-2.913464e+20
-1.145829e+21
2.846446e+20
1.725631e+21
-7.710070e+20
-1.120914e+21
-3.331979e+20
-4.556397e+20
1.472185e+21
-1.330112e+21
-2.885730e+20
7.848536e+20
7.080831e+20
1.380260e+21
-7.846197e+20
-1.296489e+21
-1.656000e+20
5.152321e+20
1.219835e+21
-7.076420e+20
-1.491933e+21
4.411700e+20
4.653859e+20
1.363464e+21
-1.299059e+21
-7.530739e+20
-1.827380e+20
7.999880e+20
1.435793e+21
-8.347183e+20
-1.179512e+21
3.150459e+20
3.522288e+20
1.852578e+21
-1.497128e+21
-9.322040e+20
5.981497e+20
-3.294977e+20
1.568703e+21
-1.034242e+21
-1.171480e+21
1.902497e+20
6.413291e+20
8.945410e+20
-3.340828e+20
-9.816216e+20
8.447048e+20
3.387881e+20
9.252555e+20
-1.329997e+21
-7.435269e+20
-3.722502e+20
4.216239e+20
1.429987e+21
-1.083971e+21
-1.090792e+21
9.817858e+20
2.103764e+20
1.802473e+21
-9.161517e+20
-1.335670e+21
6.013379e+20
-8.738678e+19
1.621190e+21
-1.213214e+21
-1.430223e+21
-6.400157e+18
5.231327e+20
8.432492e+20
-4.794686e+20
-6.857508e+20
5.396503e+20
4.833757e+20
1.543488e+21
-1.133713e+21
-6.729026e+20
-4.574403e+20
6.133172e+20
1.495611e+21
-1.462644e+21
-1.090119e+21
8.210354e+19
5.127071e+20
1.482266e+21
-4.853266e+20
-1.582982e+21
5.674056e+20
2.696923e+19
1.770671e+21
-1.091377e+21
-9.626837e+20
-2.241286e+18
6.904108e+20
9.480341e+20
-6.403582e+20
-9.940192e+20
2.972086e+20
3.035462e+20
1.901282e+21
-1.391046e+21
-7.782675e+20
1.534515e+20
-2.643599e+19
1.273382e+21
-1.806805e+21
-6.887917e+20
-3.160246e+18
1.991386e+21
-2.831043e+20
-1.001221e+20
-1.150541e+20
6.174083e+20
9.067153e+20
-8.474990e+20
-1.091559e+21
-1.063252e+20
2.712392e+19
1.370892e+21
-1.324744e+21
-6.454037e+20
1.276212e+20
2.876727e+20
1.502321e+21
-2.224146e+20
-6.875345e+20
1.391218e+20
4.179488e+20
8.244177e+20
-1.132207e+21
-1.814713e+21
5.799183e+20
5.843840e+20
1.644945e+21
-8.968622e+20
-4.443640e+20
-1.454812e+20
5.719901e+20
1.096124e+21
-1.154910e+21
-1.372359e+21
2.521243e+20
3.764379e+20
1.921582e+21
-1.392454e+21
-8.197127e+20
7.374627e+20
-1.807134e+20
1.693644e+21
-9.501627e+20
-1.169710e+21
1.263910e+20
5.164630e+20
7.269409e+20
-5.103462e+20
-1.113499e+21
7.758935e+20
2.951993e+20
1.163819e+21
-1.294238e+21
-6.509060e+20
-1.579323e+20
6.284442e+20
1.486152e+21
-1.186291e+21
-1.247669e+21
7.158117e+20
4.894835e+20
1.281209e+21
-9.011325e+20
-1.132446e+21
7.119782e+20
-5.799978e+20
1.718278e+21
-9.426511e+20
-1.281048e+21
1.082475e+20
7.124481e+20
1.018768e+21
-4.312452e+20
-8.314509e+20
2.526290e+20
2.009893e+20
1.365967e+21
-1.130514e+21
-6.103939e+20
-1.642898e+20
5.979771e+20
1.426116e+21
-1.475778e+21
-1.097195e+21
1.944753e+19
4.244510e+20
1.601856e+21
-6.443178e+20
-9.578093e+20
7.692763e+20
-6.043352e+19
1.702092e+21
-1.123318e+21
-1.101828e+21
-2.581460e+20
4.055594e+20
7.550994e+20
-6.543484e+20
-8.619877e+20
5.069716e+20
6.137688e+20
1.721073e+21
-1.003164e+21
-8.224322e+20
-6.304247e+20
1.287062e+21
-3.412216e+20
-1.412967e+21
4.452975e+20
1.437630e+20
1.286682e+21
-9.083252e+20
-1.042981e+20
3.565562e+20
1.095690e+21
9.949758e+20
-1.180171e+21
-1.631580e+21
-5.581438e+20
-1.132442e+20
1.573059e+21
-8.966640e+20
-1.695187e+20
4.600029e+20
3.721651e+20
1.363766e+21
-5.089887e+20
-9.724767e+20
-4.280125e+19
3.834087e+20
9.391402e+20
-9.320524e+20
-1.607734e+21
7.320596e+20
6.142042e+20
1.526987e+21
-1.121683e+21
-7.346087e+20
-4.046903e+20
4.028255e+20
1.048484e+21
-1.060275e+21
-1.160493e+21
5.421515e+20
7.047610e+20
2.213312e+21
-1.200635e+21
-7.466488e+20
6.667111e+20
-3.549645e+20
1.443478e+21
-1.243305e+21
-1.450374e+21
-1.058979e+20
3.682977e+20
6.970263e+20
-4.375774e+20
-9.670210e+20
9.815418e+20
5.099267e+20
1.379391e+21
-1.112866e+21
-5.364433e+20
-1.212807e+20
6.646032e+20
1.193911e+21
-1.051236e+21
-1.412345e+21
4.227645e+20
3.419887e+20
1.269160e+21
-8.708331e+20
-1.142095e+21
6.620627e+20
-6.067756e+20
1.749625e+21
-8.485656e+20
-1.140407e+21
2.363561e+20
7.839647e+20
1.026885e+21
-3.641208e+20
-1.170011e+21
6.039992e+20
1.413345e+20
1.146300e+21
-1.163079e+21
-4.745740e+20
-4.071824e+19
5.749200e+20
1.271253e+21
-1.644320e+21
-1.206470e+21
2.110653e+19
4.995743e+20
1.683911e+21
-5.905814e+20
-9.526669e+20
7.445816e+20
-6.880649e+19
1.720157e+21
-1.081290e+21
-1.029691e+21
-1.917280e+20
4.687760e+20
7.907355e+20
-6.666698e+20
-8.531991e+20
-4.104960e+19
1.931198e+21
-9.925204e+19
-8.292650e+20
1.956780e+20
-4.582248e+20
6.348853e+20
-9.216033e+20
-1.394009e+21
9.355141e+20
6.661628e+20
1.476651e+21
-1.109930e+21
-4.913777e+20
3.766167e+19
1.018348e+21
1.200050e+21
-8.210149e+20
-1.267542e+21
-3.478055e+20
-1.387047e+20
1.330081e+21
-1.249088e+21
-5.297702e+20
2.188020e+20
2.994908e+20
1.446508e+21
-3.088268e+20
-7.458727e+20
1.646390e+20
5.165210e+20
9.707257e+20
-9.924950e+20
-1.709902e+21
6.136546e+20
5.427025e+20
1.520097e+21
-1.072728e+21
-6.364373e+20
-3.060957e+20
4.929254e+20
1.095124e+21
-1.083703e+21
-1.259201e+21
3.975026e+20
5.225840e+20
2.051386e+21
-1.314965e+21
-7.994024e+20
6.985911e+20
-2.590880e+20
1.612694e+21
-1.033410e+21
-1.242342e+21
6.285733e+19
4.843546e+20
7.235916e+20
-4.816179e+20
-1.079308e+21
8.088669e+20
3.141011e+20
1.172017e+21
-1.277545e+21
-6.410066e+20
-1.611968e+20
6.885069e+20
1.288759e+21
-9.330430e+20
-1.143789e+21
2.972542e+20
8.674000e+20
1.336471e+21
-1.047890e+21
-1.161306e+21
6.222753e+20
-1.687977e+20
1.120986e+21
-1.020773e+21
-1.088113e+21
1.440631e+20
5.806886e+20
9.197096e+20
-2.665743e+20
-9.631066e+20
8.020539e+20
2.318827e+20
1.122031e+21
-1.236679e+21
-5.043842e+20
-5.245687e+18
6.863221e+20
1.400405e+21
-1.570393e+21
-1.219231e+21
-1.027284e+20
3.200383e+20
1.495244e+21
-7.427415e+20
-1.032037e+21
7.675454e+20
2.581583e+19
1.878219e+21
-9.071911e+20
-8.321428e+20
-5.718190e+20
1.881988e+21
-1.009489e+21
-5.321249e+20
9.024537e+19
3.131175e+19
1.210909e+21
-7.422709e+20
-8.302368e+20
7.110864e+20
1.026430e+20
8.761228e+20
-1.099611e+21
-1.790555e+21
5.785790e+20
5.299721e+20
1.597086e+21
-8.133764e+20
-1.947400e+20
2.208344e+20
1.018573e+21
1.028158e+21
-1.070036e+21
-1.507237e+21
-4.687234e+20
-1.102513e+20
1.480797e+21
-1.039112e+21
-3.223586e+20
3.369270e+20
3.128851e+20
1.347370e+21
-4.995352e+20
-9.629062e+20
-3.626725e+19
4.080444e+20
9.774860e+20
-8.795747e+20
-1.520931e+21
8.484297e+20
7.522885e+20
1.681093e+21
-9.988361e+20
-6.734986e+20
-4.346530e+20
2.819440e+20
8.668773e+20
-1.291507e+21
-1.417567e+21
3.112346e+20
5.338868e+20
2.135816e+21
-1.153206e+21
-5.956359e+20
8.990403e+20
-8.398241e+19
1.718381e+21
-9.949653e+20
-1.208789e+21
-1.272978e+20
2.894298e+20
9.078837e+20
-8.489072e+20
-1.463116e+21
7.790691e+20
5.021785e+20
1.324438e+21
-1.285685e+21
-7.094878e+20
-1.656663e+20
8.069028e+20
1.496823e+21
-7.121148e+20
-1.021339e+21
2.980075e+20
7.523606e+20
1.148933e+21
-1.229517e+21
-1.301788e+21
5.723097e+20
-1.410316e+20
1.188663e+21
-9.521131e+20
-1.031966e+21
1.555922e+20
5.743759e+20
9.041185e+20
-2.846908e+20
-9.587762e+20
8.165330e+20
2.784463e+20
1.183453e+21
-1.185596e+21
-4.827204e+20
-8.406945e+18
6.374117e+20
1.336181e+21
-1.642434e+21
-1.293977e+21
-1.539671e+20
2.855712e+20
1.508438e+21
-6.895146e+20
-9.571968e+20
8.459402e+20
1.061786e+20
1.926745e+21
-8.773136e+20
-8.314688e+20
-6.102025e+20
1.822190e+21
-1.097644e+21
-6.093531e+20
3.178691e+19
-7.145715e+18
1.194552e+21
-7.211470e+20
-7.946895e+20
7.769488e+20
1.825771e+20
9.473195e+20
-1.037399e+21
-1.764011e+21
5.904112e+20
5.209472e+20
1.560885e+21
-8.747667e+20
-2.588234e+20
1.596629e+20
8.210830e+20
1.495354e+21
-1.937113e+21
-9.557781e+20
-3.715910e+20
2.038011e+20
4.753051e+20
-4.170939e+20
-2.872638e+19
7.839012e+20
-7.261157e+20
1.814126e+21
-2.113794e+20
-1.291913e+21
2.315504e+20
-5.073785e+20
1.597742e+21
-7.199301e+20
-1.260222e+21
-3.073060e+20
1.217787e+21
1.859663e+21
-5.870805e+20
-1.661015e+21
1.112441e+20
5.925974e+20
1.016464e+21
-2.136871e+21
-6.713567e+20
2.545881e+20
7.124032e+20
1.192816e+21
-4.755375e+20
-2.159204e+20
4.779619e+20
-5.291996e+18
6.950587e+20
-3.663710e+20
-9.133014e+20
3.189675e+20
-7.220095e+20
1.410461e+21
-7.044311e+20
-1.160647e+21
-3.133882e+20
1.003722e+21
1.526899e+21
-8.580277e+20
-1.695610e+21
4.063817e+20
1.017821e+21
1.847866e+21
-1.820292e+21
-6.012096e+20
5.444882e+20
4.182976e+20
1.433241e+21
-2.096594e+21
-6.162444e+20
7.948970e+20
2.020824e+20
1.163571e+20
-4.419589e+20
-8.427465e+20
5.332198e+20
-4.972243e+20
1.379260e+21
-1.454931e+20
-6.261050e+20
-2.317904e+20
8.066787e+20
1.413288e+21
-7.555716e+20
-1.480001e+21
5.208430e+20
8.394132e+20
1.385310e+21
-1.871180e+21
-2.178375e+21
7.042197e+20
4.703156e+20
1.595105e+21
-1.954258e+21
-3.633226e+20
7.698997e+20
2.116421e+21
-7.369028e+20
-1.671639e+20
2.887380e+20
-1.848564e+20
5.042470e+19
-1.184719e+21
-4.035629e+20
9.218819e+20
-5.229581e+20
1.857739e+21
-8.356396e+20
-9.576033e+20
-5.977587e+20
1.480488e+20
1.936574e+21
-9.722039e+20
-1.301122e+21
-4.435027e+19
1.410072e+21
1.755042e+21
-8.728923e+20
-1.822600e+21
2.702069e+20
1.019624e+21
1.520653e+21
-1.818019e+21
-6.754902e+20
-5.964081e+19
1.852274e+20
7.832560e+20
-1.154917e+21
-2.272554e+20
9.009584e+20
-7.309432e+20
1.793025e+21
-5.373975e+20
-7.513166e+20
4.511586e+20
-5.037743e+20
1.625467e+21
-6.617789e+20
-1.298462e+21
-4.773792e+20
9.998863e+20
1.720970e+21
-6.117735e+20
-1.574255e+21
2.298608e+20
6.613564e+20
1.015509e+21
-2.208244e+21
-7.388032e+20
2.370507e+20
7.648608e+20
1.306939e+21
-3.199064e+20
-8.814187e+19
5.543517e+20
-1.481137e+19
5.862553e+20
-5.398971e+20
-1.127619e+21
1.379087e+20
-8.335189e+20
1.384357e+21
-6.453496e+20
-1.018743e+21
-1.396645e+20
1.194217e+21
1.691253e+21
-7.593703e+20
-1.666758e+21
3.476990e+20
9.115830e+20
1.712454e+21
-1.966421e+21
-7.358754e+20
4.558782e+20
3.680524e+20
1.446911e+21
-2.031926e+21
-5.259080e+20
9.036077e+20
2.926872e+20
1.991406e+20
-3.830406e+20
-8.219157e+20
5.127324e+20
-5.388947e+20
1.306617e+21
-2.141525e+20
-6.854836e+20
-2.838005e+20
7.759863e+20
1.398810e+21
-7.514993e+20
-1.443689e+21
5.689386e+20
8.804442e+20
1.426696e+21
-1.850604e+21
-2.098002e+21
2.530079e+20
1.875536e+21
-1.730338e+20
-1.765607e+21
6.481092e+20
9.256399e+20
1.450876e+21
-1.354220e+21
-1.805558e+20
7.513276e+20
3.321603e+20
2.531756e+20
-1.379597e+21
-8.085129e+20
5.632036e+20
-6.451213e+20
2.022970e+21
-5.008274e+20
-6.304497e+20
-4.078519e+20
1.186373e+20
1.737734e+21
-1.256417e+21
-1.570440e+21
-1.995660e+20
1.405058e+21
1.879409e+21
-5.325997e+20
-1.873026e+21
8.232613e+20
1.041719e+21
1.228661e+21
-2.010426e+21
-7.357780e+20
-1.310032e+20
4.514110e+19
6.237578e+20
-1.225869e+21
-1.300334e+20
1.132412e+21
-4.599732e+20
2.018511e+21
-4.444836e+20
-7.947431e+20
3.750672e+20
-9.123686e+20
1.672572e+21
-8.513408e+20
-1.531487e+21
-4.900400e+20
1.171495e+21
1.914059e+21
-4.874022e+20
-1.541097e+21
2.458933e+20
6.973854e+20
1.066359e+21
-2.160035e+21
-7.339671e+20
1.827543e+20
6.735936e+20
1.188868e+21
-4.433494e+20
-1.732355e+20
5.091639e+20
7.869824e+18
6.597101e+20
-4.468939e+20
-1.028410e+21
2.189765e+20
-7.773385e+20
1.429331e+21
-6.257851e+20
-1.034044e+21
-1.723380e+20
1.132348e+21
1.630603e+21
-8.195950e+20
-1.732802e+21
2.899801e+20
8.624478e+20
1.683256e+21
-1.952072e+21
-6.904847e+20
5.172923e+20
4.516478e+20
1.525419e+21
-1.945936e+21
-4.517048e+20
9.425250e+20
2.963291e+20
1.585488e+20
-4.593676e+20
-9.060587e+20
4.196511e+20
-6.385797e+20
1.227730e+21
-2.771835e+20
-6.998334e+20
-2.538225e+20
8.371128e+20
1.479282e+21
-6.481321e+20
-1.291145e+21
1.972814e+20
2.366654e+21
-2.889522e+20
-1.641378e+21
-9.999138e+20
5.509749e+19
1.510410e+21
-9.230668e+20
-2.104966e+21
9.998917e+20
1.504568e+21
1.738906e+21
-1.544637e+21
-6.561152e+20
3.556821e+20
2.525565e+20
5.510152e+20
-8.773626e+20
-2.197312e+20
5.272888e+20
-2.910587e+20
1.691433e+21
-1.122305e+21
-1.034349e+21
-5.006512e+20
2.070598e+20
1.851393e+21
-1.139426e+21
-1.449705e+21
-8.400891e+19
1.483676e+21
1.896060e+21
-6.177563e+20
-2.018967e+21
6.631223e+20
9.225173e+20
1.214505e+21
-1.917736e+21
-5.308764e+20
1.272198e+20
2.782428e+20
7.638648e+20
-1.205206e+21
-2.559613e+20
9.086972e+20
-7.374452e+20
1.737001e+21
-6.618844e+20
-9.243111e+20
3.780460e+20
-7.882486e+20
1.880809e+21
-6.051478e+20
-1.280121e+21
-2.955482e+20
1.301602e+21
1.958599e+21
-5.384855e+20
-1.661444e+21
6.421015e+19
5.113372e+20
9.010776e+20
-2.289023e+21
-8.149116e+20
1.696208e+20
7.046530e+20
1.275517e+21
-3.243684e+20
-5.275451e+19
6.232113e+20
8.245455e+19
7.113667e+20
-4.266592e+20
-1.046390e+21
1.657263e+20
-8.415300e+20
1.346335e+21
-6.928577e+20
-1.081878e+21
-2.062493e+20
1.125247e+21
1.630897e+21
-7.901225e+20
-1.685567e+21
3.384494e+20
9.007363e+20
1.719311e+21
-1.941919e+21
-6.845096e+20
5.137882e+20
4.298996e+20
1.500003e+21
-1.988372e+21
-4.802508e+20
9.436955e+20
1.543240e+20
5.564638e+20
-9.473056e+20
-8.466694e+20
8.455449e+20
-8.563447e+20
1.443268e+21
-4.707825e+20
-8.661716e+20
-6.195833e+20
2.529935e+21
-1.072640e+20
-5.170193e+20
-4.913878e+20
1.198696e+20
1.614642e+21
-8.151556e+20
-1.478621e+21
-3.520450e+20
6.430120e+20
1.676919e+21
-1.224576e+21
-2.642685e+21
5.465952e+20
1.373486e+21
1.947036e+21
-1.103205e+21
-1.947303e+20
6.396779e+20
2.740878e+20
3.068431e+20
-1.259565e+21
-6.057893e+20
2.529617e+20
-3.850976e+20
1.798089e+21
-8.861274e+20
-7.309120e+20
-2.262372e+20
3.718344e+20
1.884709e+21
-1.247792e+21
-1.633156e+21
-2.893464e+20
1.306066e+21
1.786477e+21
-6.243539e+20
-1.947073e+21
8.101895e+20
1.098745e+21
1.357299e+21
-1.750184e+21
-7.208384e+20
3.223430e+20
1.338930e+20
4.610050e+20
-1.394327e+21
-2.910496e+20
9.080736e+20
-7.434431e+20
1.736050e+21
-6.179378e+20
-7.957648e+20
5.552464e+20
-5.900809e+20
2.034081e+21
-5.472118e+20
-1.330684e+21
-4.197122e+20
1.122752e+21
1.789757e+21
-6.708517e+20
-1.750788e+21
3.208712e+19
5.116850e+20
9.482912e+20
-2.212398e+21
-7.287476e+20
2.526773e+20
7.917470e+20
1.340822e+21
-2.636914e+20
-8.869410e+18
6.335874e+20
6.675080e+19
6.518654e+20
-4.991650e+20
-1.128066e+21
7.763931e+19
-9.270868e+20
1.289473e+21
-7.314790e+20
-1.074342e+21
-1.595205e+20
1.193345e+21
1.720123e+21
-7.112082e+20
-1.604508e+21
3.923252e+20
1.035086e+21
1.411997e+21
-1.595756e+21
-7.985873e+20
2.172931e+20
3.210519e+20
1.569236e+21
-1.909224e+21
-5.186308e+20
8.405761e+20
7.579900e+19
5.658144e+20
-8.471479e+20
-6.899331e+20
9.732608e+20
-7.822073e+20
1.445131e+21
-5.333371e+20
-9.472093e+20
-7.037293e+20
2.488023e+21
-1.105073e+20
-5.029078e+20
-4.815695e+20
1.250528e+20
1.589868e+21
-8.423677e+20
-1.502939e+21
-3.712683e+20
6.502099e+20
1.696685e+21
-1.169773e+21
-2.568376e+21
6.167107e+20
1.420391e+21
1.973254e+21
-1.122752e+21
-2.350831e+20
5.804702e+20
1.969049e+20
2.361511e+20
-1.329108e+21
-6.387646e+20
2.559116e+20
-3.563887e+20
1.842545e+21
-8.211301e+20
-6.756328e+20
-1.674517e+20
4.200300e+20
1.905877e+21
-1.244604e+21
-1.664152e+21
-3.237490e+20
1.269638e+21
1.745783e+21
-6.672189e+20
-1.973308e+21
7.838365e+20
1.096434e+21
1.371835e+21
-1.733029e+21
-6.943368e+20
3.359871e+20
1.737705e+20
3.525957e+20
-9.759468e+20
-7.900690e+20
9.732366e+20
-4.586644e+20
1.779621e+21
-8.069004e+20
-9.760271e+20
5.496568e+20
-4.707531e+20
2.176726e+21
-4.899136e+20
-1.388262e+21
-5.448898e+20
1.019283e+21
1.741706e+21
-6.303873e+20
-1.656733e+21
1.219370e+20
5.676855e+20
9.340144e+20
-2.263736e+21
-7.965939e+20
1.907336e+20
7.567616e+20
1.357757e+21
-2.196168e+20
6.798422e+19
7.137479e+20
1.046179e+20
7.691223e+20
-8.380931e+20
-8.099080e+20
-3.730768e+19
-1.221446e+21
1.192423e+21
-6.158415e+20
-9.502844e+20
-1.231419e+20
1.150666e+21
1.670097e+21
-6.933924e+20
-1.532386e+21
4.999023e+20
1.107086e+21
1.486256e+21
-1.874860e+21
-5.834833e+20
-1.345490e+20
4.285655e+20
1.322168e+21
-1.734542e+21
-1.988853e+20
5.344719e+20
3.627107e+20
4.401149e+20
-6.200982e+20
-9.337575e+20
4.474347e+20
4.142981e+20
3.186196e+19
-5.183187e+20
3.278946e+20
-7.071814e+20
1.981646e+21
-4.985941e+20
-9.368342e+20
1.835617e+20
4.825249e+20
2.157295e+21
-1.413130e+21
-1.590853e+21
-8.853373e+20
7.010318e+20
1.530915e+21
-8.249863e+20
-2.088576e+21
3.624154e+20
1.583933e+21
1.614359e+21
-1.098004e+21
-6.192807e+20
6.115252e+20
2.274792e+20
8.504678e+20
-1.312138e+21
-3.275448e+20
1.325164e+19
-3.825955e+20
1.804069e+21
-1.466931e+21
-8.950753e+20
3.868769e+20
-6.198796e+19
1.841294e+21
-1.514747e+20
-1.538491e+21
-3.898829e+20
6.421946e+20
1.856807e+21
-7.876715e+20
-1.813606e+21
8.456996e+20
4.068494e+20
1.372781e+21
-1.879539e+21
-1.085324e+20
3.316594e+20
8.485181e+20
4.419368e+20
-7.324903e+20
-1.228672e+21
7.534517e+20
-5.953899e+20
1.070913e+21
-7.780428e+20
-1.155067e+21
9.370553e+20
-4.336001e+20
2.503688e+21
-3.439003e+20
-8.461774e+20
-7.555019e+20
1.053000e+21
1.244890e+21
-7.020869e+20
-1.980358e+21
-1.420503e+19
7.902306e+20
7.818383e+20
-1.648622e+21
-7.411876e+20
8.328253e+20
6.443489e+20
1.316080e+21
-8.778936e+20
-2.436001e+20
6.209666e+20
-4.679835e+20
9.248861e+20
-9.219158e+20
-3.654821e+20
6.166982e+19
-7.838254e+20
1.475460e+21
7.485995e+19
-1.017762e+21
-1.762147e+19
6.339526e+20
1.356773e+21
-9.875420e+20
-2.390518e+21
4.169734e+20
8.920594e+20
1.928618e+21
-1.745345e+21
-2.361639e+20
2.881868e+20
6.997781e+20
1.430369e+21
-1.751544e+21
-2.559331e+20
-1.095493e+20
1.567704e+21
-1.481219e+21
-4.630586e+20
1.619747e+20
7.386496e+20
-1.049641e+20
-5.057448e+20
-5.551183e+20
6.684406e+20
-4.105235e+20
1.946708e+21
-8.695670e+20
-1.402745e+21
-7.262016e+19
5.915259e+20
2.602870e+21
-7.876084e+20
-1.032949e+21
-5.627140e+20
6.924619e+20
1.208250e+21
-1.333709e+21
-2.630480e+21
-6.345257e+19
1.382802e+21
1.643303e+21
-8.952430e+20
-3.133550e+20
9.098876e+20
4.658587e+20
9.782491e+20
-1.313102e+21
-4.228005e+20
-1.360616e+20
-5.297257e+20
1.719732e+21
-1.479917e+21
-8.488570e+20
4.861118e+20
4.191953e+19
1.940399e+21
-9.256937e+19
-1.549062e+21
-4.641221e+20
5.108111e+20
1.697731e+21
-9.254244e+20
-1.915047e+21
7.902232e+20
4.215039e+20
1.439359e+21
-1.748946e+21
5.774992e+19
4.946408e+20
9.891429e+20
5.316552e+20
-7.150122e+20
-1.143387e+21
3.838556e+20
-3.388760e+20
8.854486e+20
-1.156232e+21
-1.316068e+21
9.934221e+20
-3.505726e+20
2.507883e+21
-4.051456e+20
-8.817715e+20
-6.824778e+20
1.220176e+21
1.439652e+21
-5.364499e+20
-1.909935e+21
-2.546039e+19
7.132446e+20
6.665033e+20
-1.756472e+21
-8.242333e+20
7.851016e+20
6.417708e+20
1.328679e+21
-8.770727e+20
-2.489939e+20
5.938394e+20
-4.835872e+20
9.250242e+20
-9.099373e+20
-3.312346e+20
1.078258e+20
-7.301028e+20
1.543363e+21
1.306425e+20
-9.957880e+20
-2.056268e+19
5.910636e+20
1.306168e+21
-1.042022e+21
-2.447197e+21
3.648447e+20
8.670916e+20
1.915472e+21
-1.724286e+21
-1.344216e+20
-1.334774e+20
2.155595e+21
-3.017383e+20
-1.516865e+21
7.962147e+20
5.143003e+19
8.995751e+20
-2.245456e+21
-1.090300e+20
1.128952e+20
1.305902e+21
3.820537e+20
-6.440553e+20
-1.144711e+21
1.651741e+20
-4.967870e+20
2.263489e+21
-3.896435e+20
-1.016709e+21
3.646069e+19
4.348641e+20
2.277734e+21
-1.144716e+21
-1.284723e+21
-6.603959e+20
7.744667e+20
1.413086e+21
-1.091055e+21
-2.426914e+21
6.492526e+19
1.397593e+21
1.578895e+21
-1.012812e+21
-4.544860e+20
7.940583e+20
3.841531e+20
9.678715e+20
-1.262046e+21
-3.369353e+20
-4.405634e+19
-4.427479e+20
1.761897e+21
-1.470474e+21
-8.789829e+20
4.138488e+20
-4.593772e+19
1.838317e+21
-1.638395e+20
-1.592324e+21
-3.556520e+20
2.521538e+20
2.157576e+21
-8.809297e+20
-2.035028e+21
8.467953e+20
6.187431e+20
1.589599e+21
-1.783027e+21
-1.069937e+20
2.995876e+20
8.460963e+20
4.673553e+20
-7.100031e+20
-1.132633e+21
3.919457e+20
-3.439888e+20
8.743290e+20
-1.136420e+21
-1.265624e+21
1.099999e+21
-2.124695e+20
2.636942e+21
-3.216739e+20
-8.529180e+20
-7.351459e+20
1.118924e+21
1.306521e+21
-6.837194e+20
-2.032553e+21
-1.202802e+20
6.830286e+20
6.952904e+20
-1.687934e+21
-7.363184e+20
8.881947e+20
7.239753e+20
1.401284e+21
-8.266282e+20
-2.333331e+20
5.883218e+20
-5.226210e+20
8.854445e+20
-9.485119e+20
-3.726166e+20
6.317751e+19
-7.617724e+20
1.506296e+21
1.122753e+20
-1.000944e+21
-2.352374e+19
6.010834e+20
1.310979e+21
-1.016950e+21
-2.350002e+21
-6.096061e+19
2.311210e+21
2.010386e+20
-1.486643e+21
9.325334e+20
5.256290e+19
1.492472e+21
-9.242626e+20
-1.573844e+21
1.223296e+21
5.170112e+20
1.040143e+21
-2.496521e+21
-5.497407e+20
-2.680610e+20
1.196478e+21
5.698170e+20
-2.777756e+20
-7.601688e+20
3.997039e+20
-4.594376e+20
2.115943e+21
-6.466161e+20
-1.278134e+21
-1.244288e+20
3.995729e+20
2.382253e+21
-9.581917e+20
-1.099306e+21
-5.318575e+20
7.869260e+20
1.312646e+21
-1.115817e+21
-3.021758e+21
3.914420e+20
1.239859e+21
1.270754e+21
-9.604995e+20
-8.351096e+19
1.168099e+21
6.945729e+20
6.701897e+20
-9.653738e+20
-4.601332e+20
-3.239125e+20
-5.460651e+20
1.799761e+21
-1.513347e+21
-1.069249e+21
1.484148e+20
-2.448922e+20
1.829654e+21
1.508814e+19
-1.272883e+21
-1.410268e+19
5.054808e+20
2.262791e+21
-9.125587e+20
-2.185466e+21
6.570749e+20
4.374325e+20
1.442818e+21
-1.867967e+21
-1.494455e+20
3.132370e+20
8.943941e+20
5.262986e+20
-6.550864e+20
-1.073594e+21
4.329483e+20
-2.988139e+20
9.162547e+20
-1.111571e+21
-1.250400e+21
1.084766e+21
-2.331464e+20
2.607266e+21
-3.652176e+20
-9.078795e+20
-7.795962e+20
1.073211e+21
1.289175e+21
-6.753222e+20
-2.010092e+21
-7.711367e+19
7.219705e+20
7.476282e+20
-1.635900e+21
-7.011968e+20
8.971629e+20
7.189092e+20
1.364146e+21
-8.677779e+20
-2.776068e+20
5.373679e+20
-5.621375e+20
8.454439e+20
-9.589098e+20
-3.571581e+20
9.378263e+19
-7.243026e+20
1.558678e+21
1.531091e+20
-9.550480e+20
1.558617e+19
6.177126e+20
1.313450e+21
-1.046657e+21
-2.383407e+21
-9.878719e+19
2.265399e+21
1.491821e+20
-1.524641e+21
8.938207e+20
4.010162e+19
1.501923e+21
-9.048357e+20
-1.536514e+21
1.256097e+21
5.659685e+20
1.081885e+21
-2.351990e+21
-8.229138e+20
1.180199e+20
1.153879e+21
3.191063e+20
-3.373200e+20
-6.630395e+20
4.820575e+20
-4.962487e+20
1.960780e+21
-7.837063e+20
-1.337825e+21
-8.802123e+19
5.067238e+20
2.572689e+21
-1.201441e+21
-7.200711e+20
-6.084402e+20
5.542510e+20
1.259000e+21
-9.491884e+20
-2.843134e+21
4.526050e+20
1.196374e+21
1.165759e+21
-1.038938e+21
-1.264468e+20
1.174796e+21
6.837755e+20
6.298273e+20
-1.024214e+21
-5.382148e+20
-3.522778e+20
-5.253837e+20
1.871356e+21
-1.384720e+21
-9.687369e+20
2.307888e+20
-2.132264e+20
1.810237e+21
-2.092325e+19
-1.361009e+21
-9.085231e+19
4.471213e+20
2.240311e+21
-8.862326e+20
-2.153621e+21
6.971726e+20
4.580451e+20
1.468495e+21
-1.874538e+21
-1.785064e+20
2.743994e+20
8.304941e+20
5.052035e+20
-8.091948e+20
-6.661248e+20
-1.152538e+19
-1.886123e+20
1.284526e+21
-9.965678e+20
-1.384057e+21
9.677745e+20
-2.408242e+20
2.715990e+21
-2.762303e+20
-9.270122e+20
-9.030841e+20
8.749764e+20
1.120303e+21
-7.649411e+20
-1.969175e+21
3.436833e+19
8.620478e+20
8.734751e+20
-1.579715e+21
-6.800768e+20
8.787948e+20
6.871513e+20
1.365143e+21
-8.789686e+20
-2.636289e+20
5.519533e+20
-5.578335e+20
8.515410e+20
-1.011527e+21
-4.238439e+20
1.293775e+19
-7.958820e+20
1.525500e+21
1.359995e+20
-8.757574e+20
-4.079394e+20
2.117984e+21
-3.600853e+20
-6.428205e+20
-1.568808e+21
4.675375e+20
1.562279e+21
-7.168290e+20
-1.637286e+21
1.451036e+21
5.912992e+20
1.622828e+21
-1.262182e+21
-2.084286e+21
8.852765e+20
5.138040e+20
1.374372e+21
-1.897372e+21
-4.175564e+20
3.412511e+20
1.077518e+21
6.546474e+19
-6.970774e+20
-9.441076e+20
3.396108e+20
-4.854633e+20
2.153129e+21
-5.508414e+20
-1.099071e+21
6.020425e+19
5.178019e+20
2.508883e+21
-1.376914e+21
-9.067296e+20
-7.785445e+20
4.345776e+20
1.272537e+21
-8.768073e+20
-2.690335e+21
6.184230e+20
1.323544e+21
1.281216e+21
-1.025860e+21
-1.645390e+20
1.045529e+21
5.470033e+20
4.886199e+20
-1.153992e+21
-5.757847e+20
-3.575438e+20
-4.520429e+20
1.982026e+21
-1.268994e+21
-8.136249e+20
3.289626e+20
-1.443609e+20
1.811458e+21
-9.630591e+19
-1.440644e+21
-2.266227e+20
3.249303e+20
2.125618e+21
-9.849174e+20
-2.163176e+21
7.094833e+20
5.406811e+20
1.554759e+21
-1.744871e+21
-5.393543e+19
3.606988e+20
9.217001e+20
5.213546e+20
-8.218465e+20
-7.301700e+20
-1.262444e+20
-2.789107e+20
1.163515e+21
-1.085895e+21
-1.456963e+21
9.107309e+20
-2.163342e+20
2.750378e+21
-1.911618e+20
-8.304298e+20
-8.184270e+20
9.947488e+20
1.191227e+21
-6.998470e+20
-1.970697e+21
2.171360e+19
8.124138e+20
7.796446e+20
-1.649152e+21
-7.837256e+20
8.017804e+20
6.204192e+20
1.306951e+21
-8.763381e+20
-1.465799e+20
3.116325e+20
-1.115779e+20
8.651917e+20
-1.134058e+21
-3.393981e+20
-2.494414e+20
7.728699e+20
-2.419607e+20
2.519397e+20
8.812207e+18
-3.201991e+20
1.420826e+21
-9.372267e+20
-6.368193e+20
-1.138553e+21
9.329863e+20
1.657537e+21
-9.750757e+20
-2.064045e+21
1.121776e+21
5.960065e+20
1.896108e+21
-8.261141e+20
-1.539455e+21
6.850285e+20
1.002907e+21
1.050946e+21
-2.534737e+21
-9.462165e+20
6.914398e+20
7.284545e+20
2.465858e+20
-2.892010e+20
-8.087296e+20
2.945189e+20
-5.218920e+20
2.200283e+21
-4.439556e+20
-1.131224e+21
-1.120106e+20
2.434537e+20
2.255788e+21
-1.425873e+21
-7.725649e+20
-4.541142e+20
8.147037e+20
1.572107e+21
-6.966927e+20
-2.744126e+21
3.973591e+20
9.761958e+20
8.913213e+20
-1.307132e+21
-3.444028e+20
1.045910e+21
6.600500e+20
7.285525e+20
-8.747087e+20
-3.308821e+20
-1.362803e+20
-3.531579e+20
2.000741e+21
-1.344955e+21
-9.681591e+20
1.882189e+20
-3.118898e+20
1.688501e+21
-1.874637e+20
-1.503614e+21
-2.021934e+20
3.578608e+20
2.202132e+21
-9.065228e+20
-2.105138e+21
7.987003e+20
5.836650e+20
1.601476e+21
-1.749535e+21
-5.143287e+19
3.442495e+20
8.754424e+20
5.074995e+20
-8.698986e+20
-7.598017e+20
-1.608942e+20
-3.251334e+20
1.168680e+21
-1.099411e+21
-1.442278e+21
9.243522e+20
-2.151083e+20
2.798487e+21
-1.693056e+20
-8.032943e+20
-6.928545e+20
6.910793e+20
1.596618e+21
-7.580551e+20
-2.194606e+21
-5.661728e+19
9.296806e+20
8.786907e+20
-1.694687e+21
-8.876695e+20
6.678219e+20
5.848307e+20
1.358363e+21
-7.873922e+20
3.970350e+19
-1.033988e+20
1.307751e+21
-9.303009e+20
-9.880176e+20
6.956162e+20
-8.387470e+19
1.564640e+20
-8.070170e+20
2.481646e+20
5.002071e+20
1.445422e+20
1.558572e+21
-1.233800e+21
-1.108781e+21
-1.532961e+21
7.979658e+20
1.872950e+21
-5.921896e+20
-1.644831e+21
1.390123e+21
6.225721e+20
1.754926e+21
-1.120788e+21
-1.826250e+21
4.772649e+20
9.187726e+20
1.151280e+21
-2.366599e+21
-7.333171e+20
8.514374e+20
7.779523e+20
2.319337e+20
-4.210226e+20
-9.627988e+20
1.148665e+20
-6.241381e+20
2.175523e+21
-3.994795e+20
-9.754840e+20
5.144039e+19
4.227591e+20
2.385560e+21
-1.383030e+21
-7.679445e+20
-5.538608e+20
6.774160e+20
1.398902e+21
-8.819882e+20
-2.862118e+21
4.354684e+20
5.875534e+20
1.625173e+21
-1.518565e+21
-7.575713e+20
2.047490e+21
5.633072e+20
5.010936e+20
-4.797449e+20
-6.449262e+20
-2.977527e+20
3.484624e+19
1.506949e+21
-1.399775e+21
-1.201123e+21
5.518044e+20
-2.965005e+20
1.117023e+21
1.932267e+20
-1.193826e+21
-6.134780e+20
1.077797e+21
1.951207e+21
-1.449774e+21
-1.288534e+21
5.907524e+20
-1.470544e+19
2.322106e+21
-1.964497e+21
-6.958939e+20
1.068981e+21
6.219677e+20
-1.499183e+20
-7.856648e+19
-1.015235e+21
-3.315509e+20
2.245369e+20
1.019013e+21
-8.416928e+20
-1.585892e+21
1.215981e+21
-4.257961e+20
2.007288e+21
6.561122e+19
-6.012872e+20
-1.133175e+21
1.357050e+21
1.326805e+21
-1.261770e+21
-1.314616e+21
-1.176817e+20
4.273255e+20
1.743230e+21
-1.830592e+21
-1.441315e+21
9.065403e+20
1.638210e+21
-1.150364e+21
7.381598e+19
7.217653e+20
-1.398714e+20
1.194164e+21
-1.587538e+21
-8.967502e+20
1.685666e+21
3.323658e+19
2.494367e+20
-1.321075e+21
1.016760e+20
4.788839e+18
-5.937298e+20
2.045620e+21
-5.642678e+20
-1.125496e+21
-5.481032e+20
6.364984e+20
1.184713e+21
4.510700e+18
-2.105511e+21
5.846932e+20
1.276539e+21
1.552303e+21
-1.597837e+21
-9.672698e+20
3.428576e+20
3.139920e+20
1.853129e+21
-2.700754e+21
-1.051160e+21
1.305561e+21
6.225679e+20
2.937426e+20
1.629609e+20
-1.274131e+21
2.057987e+20
-8.003513e+20
2.568792e+21
-4.638883e+20
-1.668687e+21
2.927787e+20
5.504407e+20
1.830090e+21
-8.328995e+20
-1.130580e+21
-1.121401e+21
1.519664e+21
1.317364e+21
-1.358362e+21
-1.971893e+21
2.845489e+20
5.027996e+20
1.796248e+21
-1.413547e+21
-8.292418e+20
1.897902e+21
4.358220e+20
4.941355e+20
-4.626011e+20
-6.357585e+20
-1.211666e+20
-6.760148e+20
2.146500e+21
-1.641219e+21
-1.741924e+21
4.470582e+20
2.072426e+19
1.533770e+21
3.816715e+20
-1.175487e+21
-6.422110e+20
1.111995e+21
2.115721e+21
-1.312130e+21
-1.236508e+21
4.642628e+20
-2.920143e+20
1.988837e+21
-2.275932e+21
-8.563810e+20
1.031419e+21
7.550190e+20
8.227459e+19
1.900883e+20
-8.860423e+20
2.231456e+20
-2.076977e+20
1.047279e+21
-6.607201e+20
-1.641008e+21
8.997262e+20
-6.824458e+20
1.946118e+21
1.567375e+20
-4.324892e+20
-1.071194e+21
1.330724e+21
1.224676e+21
-1.354471e+21
-1.327157e+21
-6.342724e+19
5.635872e+20
1.844397e+21
-1.750563e+21
-1.426926e+21
8.472043e+20
1.583533e+21
-1.245278e+21
1.106397e+19
6.797312e+20
-1.663536e+20
1.237864e+21
-1.557821e+21
-8.486190e+20
1.712915e+21
2.550238e+19
2.706511e+20
-1.334167e+21
1.103796e+20
7.722895e+18
-5.836295e+20
2.075495e+21
-5.474189e+20
-1.088114e+21
-5.683875e+20
6.111711e+20
1.133664e+21
-7.585268e+19
-2.147282e+21
5.200505e+20
1.247446e+21
1.541078e+21
-1.594380e+21
-8.876597e+20
4.210194e+20
4.247376e+20
1.951428e+21
-2.641609e+21
-9.836069e+20
1.302250e+21
5.997787e+20
2.015437e+20
6.855694e+19
-1.385730e+21
7.821923e+19
-8.704826e+20
2.498105e+21
-4.779828e+20
-1.650042e+21
3.320863e+20
6.633396e+20
1.933244e+21
-7.073345e+20
-1.026045e+21
-1.060910e+21
1.587805e+21
1.317554e+21
-1.379126e+21
-2.037541e+21
1.725617e+20
4.171993e+20
1.679063e+21
-1.496289e+21
-9.210849e+20
1.861979e+21
4.309099e+20
5.055634e+20
-3.808501e+20
-5.619862e+20
-1.671724e+19
-5.791383e+20
2.215084e+21
-1.550040e+21
-1.706949e+21
4.682367e+20
-9.159636e+17
1.462878e+21
3.297751e+20
-1.269536e+21
-7.207828e+20
1.030640e+21
2.030367e+21
-1.333720e+21
-1.261597e+21
4.894261e+20
-2.737493e+20
2.051999e+21
-2.204057e+21
-7.985384e+20
1.125127e+21
8.064621e+20
1.342845e+20
2.118871e+20
-9.054598e+20
2.241083e+20
-2.547437e+20
1.003570e+21
-7.235873e+20
-1.725956e+21
8.612149e+20
-7.384915e+20
1.924748e+21
1.445098e+20
-4.450039e+20
-1.024424e+21
1.362238e+21
1.289077e+21
-1.317765e+21
-1.209008e+21
-4.821084e+20
1.989434e+21
1.315113e+20
-1.539619e+21
-3.851770e+20
9.936385e+20
8.732660e+20
-1.868211e+21
-6.698109e+19
1.252964e+21
-9.792640e+19
1.874439e+21
-1.824198e+21
-1.577352e+21
1.320885e+21
1.145336e+20
6.093128e+20
-9.470764e+20
3.367953e+20
1.058542e+20
-6.359962e+20
1.969453e+21
-7.009651e+20
-1.268072e+21
-6.775152e+20
5.379420e+20
1.164788e+21
2.633731e+19
-2.016694e+21
6.896280e+20
1.334046e+21
1.557128e+21
-1.684046e+21
-1.069905e+21
2.528238e+20
2.538556e+20
1.871697e+21
-2.631776e+21
-8.936426e+20
1.508694e+21
7.836067e+20
6.158118e+20
-4.153598e+20
-5.816019e+20
-6.807292e+19
-1.479102e+21
2.245606e+21
-4.225401e+20
-1.571670e+21
2.101283e+20
4.007834e+20
1.785961e+21
-6.693126e+20
-7.533555e+20
-6.945810e+20
1.889562e+21
1.507386e+21
-1.403584e+21
-2.189456e+21
-5.633554e+19
1.814898e+20
1.551607e+21
-1.569211e+21
-9.001420e+20
1.891780e+21
4.955825e+20
5.558287e+20
-3.649813e+20
-5.156526e+20
1.427474e+18
-5.306512e+20
2.269086e+21
-1.507364e+21
-1.629607e+21
4.914472e+20
4.186107e+17
1.407487e+21
2.124053e+20
-1.372214e+21
-8.563530e+20
9.347970e+20
1.968150e+21
-1.357866e+21
-1.182920e+21
5.917799e+20
-1.129159e+20
2.191527e+21
-2.056125e+21
-6.957110e+20
1.150914e+21
8.059640e+20
4.041140e+19
8.706690e+19
-1.066916e+21
4.165131e+19
-3.725567e+20
8.997950e+20
-7.531004e+20
-1.704962e+21
9.186990e+20
-5.951933e+20
2.065447e+21
3.086373e+20
-2.489302e+20
-1.408485e+21
2.846602e+21
-4.736962e+20
-1.138730e+21
-2.769142e+20
-4.276149e+20
1.199129e+21
-6.208724e+20
-1.637970e+21
1.936849e+18
1.477751e+21
1.069851e+21
-2.040174e+21
-3.722725e+20
9.959564e+20
-8.792631e+19
2.140377e+21
-1.429388e+21
-1.167607e+21
1.526064e+21
9.520748e+19
3.643091e+20
-1.330784e+21
-2.057246e+18
-1.558001e+20
-7.126826e+20
2.020307e+21
-5.150711e+20
-1.049530e+21
-5.123376e+20
6.590155e+20
1.155363e+21
-4.790372e+19
-2.142651e+21
5.510589e+20
1.285950e+21
1.552952e+21
-1.595666e+21
-9.370133e+20
3.860497e+20
4.092610e+20
1.943986e+21
-2.617567e+21
-9.542625e+20
1.209250e+21
1.019600e+21
-8.776717e+19
-5.019937e+20
-4.023293e+20
-3.390025e+19
-1.602938e+21
2.189025e+21
-2.224493e+20
-1.248083e+21
5.461924e+20
5.908371e+20
1.780688e+21
-7.660585e+20
-9.343188e+20
-8.461725e+20
1.769800e+21
1.406097e+21
-1.445817e+21
-2.261457e+21
-1.143310e+20
1.222489e+20
1.503710e+21
-1.523777e+21
-8.234681e+20
2.044713e+21
6.459871e+20
7.268401e+20
-2.369083e+20
-4.713847e+20
8.161844e+18
-6.273894e+20
2.137072e+21
-1.672522e+21
-1.805497e+21
3.936111e+20
-7.179707e+19
1.414545e+21
2.653023e+20
-1.297753e+21
-7.191114e+20
1.042687e+21
2.074607e+21
-1.295209e+21
-1.180898e+21
5.949974e+20
-1.724349e+20
2.133914e+21
-2.153069e+21
-7.620980e+20
1.096478e+21
7.556063e+20
5.472996e+19
9.377743e+19
-1.023942e+21
8.697450e+19
-3.421902e+20
9.685311e+20
-7.234322e+20
-1.613455e+21
4.583628e+20
7.842415e+20
3.107725e+20
4.883822e+20
7.750491e+20
-1.265547e+21
2.146728e+21
-1.073772e+21
-1.167867e+21
2.065870e+20
6.711794e+19
1.400122e+21
-8.129067e+20
-2.056545e+21
-3.212169e+20
1.364861e+21
1.247397e+21
-1.703975e+21
-5.312902e+19
1.214633e+21
-1.078575e+20
1.951914e+21
-1.750096e+21
-1.267243e+21
7.733690e+20
8.232823e+20
4.089177e+20
-1.563911e+21
1.297641e+20
3.115388e+20
-4.035628e+20
1.982083e+21
-8.836578e+20
-1.452729e+21
-7.685846e+20
6.134384e+20
1.330098e+21
1.676625e+20
-1.936673e+21
6.699709e+20
1.308596e+21
1.569717e+21
-1.624003e+21
-9.473416e+20
3.620013e+20
3.465961e+20
1.890044e+21
-2.735334e+21
-1.074238e+21
1.086590e+21
9.172200e+20
-8.130220e+19
-4.450098e+20
-2.484033e+20
1.370162e+20
-1.396041e+21
2.361235e+21
-1.350572e+20
-1.208957e+21
4.630996e+20
4.494482e+20
1.583879e+21
-9.899899e+20
-1.086688e+21
-9.676289e+20
1.743964e+21
1.450294e+21
-1.352996e+21
-2.081579e+21
5.259522e+19
2.927948e+20
1.623020e+21
-1.483647e+21
-8.082292e+20
1.968595e+21
5.460572e+20
5.695767e+20
-3.706043e+20
-5.878960e+20
-8.785409e+19
-6.341665e+20
2.150962e+21
-1.595383e+21
-1.705003e+21
4.906101e+20
6.361247e+19
1.499592e+21
3.331936e+20
-1.283070e+21
-7.680755e+20
9.975908e+20
1.974433e+21
-1.388473e+21
-1.280065e+21
4.941136e+20
-2.029280e+20
2.109091e+21
-2.118089e+21
-7.262147e+20
1.181585e+21
8.492400e+20
1.294207e+20
1.953351e+20
-9.847125e+20
1.891803e+20
-5.495718e+20
1.163378e+21
-7.937198e+20
-1.848690e+21
3.580398e+20
7.947128e+20
3.069075e+20
4.628898e+20
6.792194e+20
-1.318053e+21
2.153753e+21
-9.911999e+20
-1.027553e+21
3.320357e+20
1.839772e+20
1.424645e+21
-8.159457e+20
-2.089489e+21
-3.748932e+20
1.358782e+21
1.215542e+21
-1.721911e+21
-9.235232e+19
1.141865e+21
-1.491746e+20
1.880619e+21
-1.792130e+21
-1.296710e+21
7.547833e+20
8.794919e+20
4.656789e+20
-1.468292e+21
2.173893e+20
3.882293e+20
-3.343768e+20
2.009591e+21
-8.588526e+20
-1.499177e+21
-8.230180e+20
5.389759e+20
1.236567e+21
1.226984e+20
-1.998997e+21
6.417505e+20
1.289604e+21
1.551570e+21
-1.581350e+21
-9.185760e+20
4.179537e+20
3.945968e+20
1.914171e+21
-2.678060e+21
-1.056480e+21
1.112271e+21
9.181576e+20
-9.212420e+19
-4.497756e+20
-2.709893e+20
1.404022e+20
-1.436011e+21
2.335785e+21
-1.663219e+20
-1.254281e+21
4.630619e+20
4.227310e+20
1.578826e+21
-9.984643e+20
-1.104847e+21
-9.320014e+20
1.762571e+21
1.496271e+21
-1.312666e+21
-2.062159e+21
1.074320e+20
3.087443e+20
1.645518e+21
-1.489018e+21
-8.294620e+20
1.949428e+21
5.063474e+20
5.553522e+20
-4.258625e+20
-6.234450e+20
-1.216537e+20
-6.730428e+20
2.166502e+21
-1.598625e+21
-1.681174e+21
5.129929e+20
7.438449e+19
1.558403e+21
3.660372e+20
-1.233925e+21
-7.363826e+20
9.973355e+20
2.000738e+21
-1.406591e+21
-1.293132e+21
4.559201e+20
-2.503283e+20
2.073515e+21
-2.162530e+21
-7.329781e+20
1.145050e+21
8.414316e+20
1.291108e+20
1.918091e+20
-8.630794e+20
-3.703240e+20
1.253372e+21
-9.995597e+20
-5.151738e+20
-4.962203e+20
5.855803e+20
-1.807798e+18
-4.453127e+20
4.202600e+20
1.268770e+21
-7.221645e+20
2.362370e+21
-1.305718e+21
-1.575531e+21
-1.433491e+20
2.366866e+18
1.636487e+21
-4.116475e+20
-1.652236e+21
-1.132093e+20
1.349913e+21
1.023710e+21
-2.058755e+21
-3.898007e+20
9.679613e+20
-1.567805e+20
2.084226e+21
-1.518689e+21
-1.002425e+21
9.523503e+20
9.138675e+20
3.869690e+20
-1.698472e+21
-4.806637e+19
1.067088e+20
-5.102271e+20
1.950793e+21
-8.065707e+20
-1.299982e+21
-5.928471e+20
7.929701e+20
1.434249e+21
2.153612e+20
-1.968722e+21
5.431518e+20
1.133612e+21
1.347805e+21
-1.799847e+21
-1.051582e+21
3.274730e+20
4.054987e+20
1.992788e+21
-2.561508e+21
-8.701987e+20
1.264433e+21
1.059302e+21
-3.871565e+19
-4.378252e+20
-3.277271e+20
1.363064e+19
-1.553040e+21
2.183597e+21
-2.796609e+20
-1.335206e+21
4.175897e+20
4.763531e+20
1.653419e+21
-8.710995e+20
-9.732386e+20
-8.275034e+20
1.881858e+21
1.545288e+21
-1.294543e+21
-2.103636e+21
3.382166e+18
2.164186e+20
1.510945e+21
-1.594376e+21
-9.433977e+20
1.896939e+21
4.688091e+20
7.695016e+20
-9.357076e+20
2.209348e+20
-8.899596e+19
-1.005435e+21
2.173151e+21
-1.224463e+21
-1.396661e+21
5.186921e+20
-1.778202e+20
1.236644e+21
2.021277e+20
-1.266840e+21
-6.545352e+20
1.065305e+21
1.975252e+21
-1.471905e+21
-1.423125e+21
3.820808e+20
-2.687087e+20
2.185152e+21
-1.972731e+21
-4.725072e+20
8.913009e+20
2.355314e+21
-1.602443e+21
3.270619e+20
1.483349e+19
-3.503314e+20
4.290319e+20
-1.711994e+21
-5.878347e+20
-5.064136e+19
1.152545e+21
2.367411e+20
-5.758415e+20
5.999107e+19
9.262556e+20
-7.991777e+20
2.517913e+21
-9.601093e+20
-1.252239e+21
7.552980e+19
2.128258e+19
1.459749e+21
-6.443511e+20
-1.908598e+21
-2.606984e+20
1.322829e+21
1.094762e+21
-1.880695e+21
-2.442777e+20
1.067556e+21
-1.649871e+20
1.959804e+21
-1.665002e+21
-1.188721e+21
8.287265e+20
8.673744e+20
4.270389e+20
-1.518658e+21
1.680035e+20
3.637853e+20
-3.194987e+20
2.086975e+21
-7.821861e+20
-1.407941e+21
-7.584168e+20
5.340157e+20
1.176345e+21
-2.103951e+19
-2.152837e+21
4.983543e+20
1.165158e+21
1.492386e+21
-1.596125e+21
-8.339296e+20
5.816243e+20
5.898962e+20
2.127263e+21
-2.520700e+21
-9.347351e+20
1.183766e+21
7.465066e+20
1.834049e+20
-1.145370e+21
-4.143172e+20
2.125652e+20
-1.558292e+21
2.046122e+21
-3.771376e+20
-1.205020e+21
6.964154e+20
7.453180e+20
1.850438e+21
-8.524125e+20
-1.043270e+21
-9.410697e+20
1.773293e+21
1.523343e+21
-1.315201e+21
-2.106866e+21
-3.674427e+19
1.224962e+20
1.438850e+21
-1.687451e+21
-9.747144e+20
1.892075e+21
5.496645e+20
8.918023e+20
-8.141909e+20
3.679969e+20
-1.444566e+19
-9.710380e+20
2.138125e+21
-1.327431e+21
-1.486307e+21
3.955437e+20
-2.649471e+20
1.173801e+21
1.619745e+20
-1.223665e+21
-6.069472e+20
1.150894e+21
2.054812e+21
-1.422769e+21
-1.295519e+21
-7.186526e+19
1.149289e+21
3.863371e+20
-1.789666e+21
5.295133e+20
1.004376e+21
1.688599e+21
-2.236726e+21
3.161931e+20
4.879459e+20
1.487915e+20
6.510904e+20
-1.910205e+21
-9.796273e+20
-4.008433e+20
1.020598e+21
4.177702e+20
-2.548156e+20
4.041382e+20
1.122334e+21
-8.275025e+20
2.349320e+21
-1.251630e+21
-1.502880e+21
-9.866076e+19
2.242919e+19
1.593861e+21
-4.483798e+20
-1.668790e+21
-1.176776e+20
1.374275e+21
1.020292e+21
-2.063619e+21
-4.245190e+20
8.766059e+20
-2.703759e+20
1.940871e+21
-1.603591e+21
-1.006359e+21
1.022967e+21
1.074295e+21
5.748456e+20
-1.471015e+21
1.638099e+20
2.435186e+20
-4.790100e+20
1.868257e+21
-9.649436e+20
-1.549590e+21
-8.494151e+20
5.621514e+20
1.248589e+21
1.268383e+20
-1.982422e+21
6.518322e+20
1.333999e+21
1.582929e+21
-1.550167e+21
-8.631015e+20
4.760887e+20
4.865022e+20
1.977722e+21
-2.671007e+21
-8.438172e+20
4.916881e+20
1.499059e+21
1.083033e+20
-1.513351e+21
-4.140219e+20
6.026861e+20
-1.200614e+21
2.110750e+21
-5.095721e+20
-1.418704e+21
6.056702e+20
7.858151e+20
1.943843e+21
-7.476769e+20
-1.067199e+21
-1.051163e+21
1.600046e+21
1.351609e+21
-1.362501e+21
-2.075172e+21
1.047540e+20
2.988275e+20
1.583230e+21
-1.560987e+21
-9.614711e+20
1.847658e+21
4.172862e+20
7.645197e+20
-9.292707e+20
2.771770e+20
-2.778753e+19
-8.145650e+20
1.811665e+21
-7.458519e+20
-1.494456e+21
1.690383e+20
-3.024128e+20
1.360678e+21
3.020038e+20
-1.224049e+21
-1.225138e+21
2.382305e+21
2.524231e+20
-1.134395e+21
-1.269192e+20
2.521570e+20
5.398425e+20
-2.409036e+20
-1.922214e+21
8.853537e+20
1.419905e+21
1.816092e+21
-2.404642e+21
-5.159922e+19
2.087392e+20
9.431126e+19
8.299601e+20
-1.543852e+21
-6.558474e+20
-2.054022e+20
1.002993e+21
2.062425e+20
-5.103143e+20
1.399402e+20
9.792172e+20
-8.432421e+20
2.433845e+21
-1.060779e+21
-1.346218e+21
1.744084e+19
1.138204e+19
1.515095e+21
-5.913038e+20
-1.840125e+21
-2.073303e+20
1.334262e+21
1.094009e+21
-1.914122e+21
-2.422819e+20
1.105358e+21
-1.152020e+20
2.029984e+21
-1.629933e+21
-1.156366e+21
8.339133e+20
8.150957e+20
3.397244e+20
-1.665294e+21
3.528705e+19
2.606173e+20
-3.875825e+20
2.068736e+21
-7.426816e+20
-1.289163e+21
-6.212204e+20
7.083455e+20
1.347327e+21
9.859430e+19
-2.082409e+21
4.731139e+20
1.096562e+21
1.381499e+21
-1.753947e+21
-9.954319e+20
4.044772e+20
4.724138e+20
2.077873e+21
-2.541738e+21
-6.602924e+20
6.750455e+20
1.646259e+21
2.582914e+20
-1.447224e+21
-3.859374e+20
5.394673e+20
-1.288819e+21
1.984029e+21
-6.701554e+20
-1.534883e+21
4.814510e+20
7.163233e+20
1.910342e+21
-7.530530e+20
-9.884486e+20
-9.697608e+20
1.716952e+21
1.460230e+21
-1.286405e+21
-1.981836e+21
1.372756e+20
3.152458e+20
1.551417e+21
-1.624040e+21
-1.030834e+21
1.757418e+21
3.600993e+20
6.804527e+20
-9.751901e+20
2.528086e+20
-3.914428e+19
-7.578813e+20
1.856720e+21
-6.740286e+20
-1.431683e+21
2.065253e+20
-2.345575e+20
1.383495e+21
3.233778e+20
-1.234076e+21
-1.275383e+21
2.357098e+21
1.881605e+20
-1.182120e+21
-2.420495e+20
6.131781e+20
-4.772555e+20
6.205512e+20
-2.161867e+21
2.334562e+21
-3.186391e+20
-2.426291e+20
-2.986630e+19
2.499793e+21
-1.658656e+20
-1.681742e+21
-2.080661e+21
-3.268456e+20
-1.906611e+19
2.928555e+21
3.660548e+20
-2.187571e+21
4.484766e+20
1.148741e+21
-2.651946e+20
-2.552970e+21
4.780745e+20
8.727084e+20
7.015309e+20
3.542771e+21
-9.986604e+20
-1.447321e+21
-1.101659e+20
-1.305841e+21
-1.832018e+21
-5.373538e+20
-7.432661e+20
4.475291e+20
2.368773e+21
5.121204e+21
-6.212591e+20
-1.542812e+21
-7.126827e+20
-1.241571e+21
-1.820768e+21
-1.608996e+21
-1.475290e+21
9.659093e+20
2.905187e+21
4.543938e+21
-8.251153e+20
-5.117503e+20
-1.302469e+20
-9.494916e+20
-2.673429e+21
-1.808317e+21
-1.026447e+21
1.030843e+21
3.077797e+21
1.067290e+21
1.098297e+21
9.618996e+20
-7.060157e+20
-1.843046e+21
-2.669211e+21
-1.808104e+21
9.464047e+20
-3.121727e+20
5.064961e+21
9.183869e+20
7.300743e+20
-1.068575e+21
-9.156666e+20
-1.188797e+21
-2.089480e+21
-3.065884e+21
1.202997e+21
1.530612e+21
3.868175e+21
2.731509e+20
-6.180286e+20
4.033108e+20
-1.272750e+20
-1.432704e+21
-3.070105e+21
4.811165e+20
1.073013e+21
1.052700e+21
3.275191e+21
-4.529209e+20
-1.533914e+21
-4.713927e+20
-1.425011e+21
-1.664527e+21
-3.528190e+20
-6.680019e+20
6.704845e+20
1.784726e+21
5.944137e+21
-3.454631e+20
-2.461381e+21
-1.671879e+20
-6.230838e+20
-2.328410e+21
-2.223598e+21
-1.573998e+21
1.126462e+21
2.936567e+21
4.365719e+21
-1.042504e+21
-6.014102e+20
1.189840e+20
-1.139251e+21
-1.995805e+21
-1.815643e+21
-1.474707e+21
1.833217e+21
4.598392e+20
4.900151e+21
8.919530e+20
-7.111953e+20
-1.748201e+21
4.115608e+20
-1.709641e+21
-2.259579e+21
-1.613519e+21
8.229160e+20
1.300960e+21
4.013071e+21
8.548086e+20
-2.307661e+21
-1.694463e+20
2.805169e+20
-1.043947e+21
-3.095347e+21
3.346532e+20
1.065412e+21
1.184722e+21
4.132822e+21
-4.757722e+20
-1.058414e+21
7.497618e+18
-1.412808e+21
-2.137849e+21
-9.641492e+20
-1.132431e+21
1.105204e+20
2.188337e+21
5.090910e+21
-5.238328e+20
-1.295879e+21
-4.417163e+20
-9.571157e+20
-1.600523e+21
-1.495762e+21
-1.303766e+21
-3.524793e+19
5.608129e+21
8.512893e+20
-5.535737e+20
1.439904e+21
1.050238e+20
-2.273533e+21
-3.871127e+21
-1.760001e+21
9.758171e+17
2.117101e+21
3.545404e+21
6.952172e+20
2.924025e+20
2.248060e+20
-1.003949e+21
-1.564574e+21
-2.080075e+21
-1.180223e+21
1.306297e+21
-3.584507e+20
4.720774e+21
3.798540e+20
2.666874e+20
-1.338025e+21
-8.584123e+20
-8.685566e+20
-1.640922e+21
-2.588397e+21
1.496104e+21
1.601048e+21
3.676957e+21
-1.301431e+20
-1.064954e+21
-3.481612e+19
-4.028817e+20
-1.508777e+21
-2.944468e+21
8.301146e+20
1.496710e+21
1.502040e+21
3.629667e+21
-2.720384e+20
-1.498419e+21
-6.458332e+20
-1.714992e+21
-2.059766e+21
-7.222757e+20
-9.723411e+20
4.671543e+20
1.765406e+21
6.035141e+21
-1.232330e+20
-2.180365e+21
1.095231e+20
-3.415575e+20
-2.154381e+21
-2.134644e+21
-1.603380e+21
9.829271e+20
2.769106e+21
4.141314e+21
-1.237753e+21
-7.623035e+20
5.696671e+18
-1.133734e+21
-1.946273e+21
-1.684804e+21
-1.341647e+21
1.997092e+21
5.980930e+20
4.976225e+21
9.506216e+20
-7.687900e+20
-1.616355e+21
-3.076553e+20
-1.109447e+21
-2.457186e+21
-2.169969e+21
6.992449e+20
1.571214e+21
4.291652e+21
9.645863e+20
-2.402517e+21
-2.482920e+20
3.241710e+20
-8.769966e+20
-2.837015e+21
4.907202e+20
1.090374e+21
1.015179e+21
3.881742e+21
-7.504868e+20
-1.291417e+21
-7.899210e+19
-1.418020e+21
-2.040565e+21
-8.346112e+20
-1.021344e+21
2.372217e+20
2.251374e+21
5.144526e+21
-4.927856e+20
-1.282735e+21
-3.781441e+20
-9.171053e+20
-1.549617e+21
-1.479822e+21
-1.348753e+21
-8.871219e+19
5.477257e+21
7.097033e+20
-7.378063e+20
1.297416e+21
1.813525e+18
-2.331629e+21
-3.815767e+21
-1.663904e+21
1.725953e+20
2.313898e+21
3.729028e+21
8.968984e+20
4.152480e+20
2.977193e+20
-1.016931e+21
-1.669568e+21
-2.201833e+21
-1.367829e+21
1.125328e+21
-5.359074e+20
4.558727e+21
3.103038e+20
2.435525e+20
-1.428196e+21
-3.918314e+20
-1.241188e+21
-1.431993e+21
-2.173995e+21
1.837359e+21
1.111024e+21
4.085148e+21
-1.679186e+20
-1.263351e+21
3.050183e+19
-2.525560e+20
-1.486853e+21
-3.170113e+21
4.663548e+20
1.247437e+21
1.417306e+21
3.751798e+21
-6.904964e+19
-1.342646e+21
-5.522633e+20
-1.787964e+21
-1.947794e+21
-1.437066e+21
-2.378210e+20
4.460560e+20
1.447920e+21
6.163013e+21
3.040850e+20
-1.828462e+21
1.033325e+20
-6.637789e+20
-2.513422e+21
-2.406532e+21
-1.670037e+21
1.047374e+21
2.857998e+21
4.235408e+21
-1.238144e+21
-7.897067e+20
-3.257468e+19
-1.153341e+21
-1.870796e+21
-1.598181e+21
-1.222589e+21
2.058636e+21
6.347519e+20
4.953679e+21
8.681638e+20
-8.266586e+20
-1.691540e+21
-3.299028e+20
-1.097778e+21
-2.428300e+21
-2.082279e+21
7.496133e+20
1.608046e+21
4.272089e+21
8.770451e+20
-2.485299e+21
-3.752441e+20
2.266643e+20
-9.484032e+20
-2.874118e+21
5.566450e+20
1.183659e+21
1.173089e+21
4.025635e+21
-5.911522e+20
-1.171654e+21
-3.319573e+19
-1.398442e+21
-2.117405e+21
-9.482166e+20
-1.062801e+21
-8.845640e+20
4.936043e+21
1.509524e+21
-1.160206e+20
8.003652e+20
-2.067445e+18
-2.105993e+21
-2.630792e+21
-1.342888e+21
-2.649260e+20
1.022316e+21
5.942187e+21
3.129569e+20
-1.578542e+21
4.938428e+20
-3.239205e+20
-2.130249e+21
-3.295136e+21
-1.082798e+21
4.680849e+20
2.247989e+21
3.325948e+21
3.257525e+20
-4.351439e+19
5.547036e+19
-9.200413e+20
-1.298619e+21
-1.690600e+21
-8.179797e+20
1.493907e+21
-3.959425e+20
4.422127e+21
-6.023215e+19
-1.964653e+20
-1.886655e+21
-7.072729e+20
-1.398767e+21
-1.356642e+21
-1.926983e+21
2.171542e+21
1.502600e+21
4.378927e+21
1.396840e+19
-1.249888e+21
-1.270773e+20
-4.818115e+20
-1.799605e+21
-3.453208e+21
2.440180e+20
1.117686e+21
1.458558e+21
3.884490e+21
1.705546e+20
-1.071474e+21
-3.118625e+20
-1.564880e+21
-1.847848e+21
-1.423653e+21
-3.621406e+20
2.626002e+20
1.211312e+21
5.900452e+21
1.148879e+20
-1.981188e+21
5.710516e+19
-6.244307e+20
-2.407429e+21
-2.195736e+21
-1.457353e+21
1.273432e+21
3.035879e+21
4.329533e+21
-1.181237e+21
-8.428399e+20
-1.388425e+20
-1.321565e+21
-2.084790e+21
-1.767991e+21
-1.392120e+21
1.964172e+21
5.740369e+20
4.987228e+21
9.606625e+20
-7.044980e+20
-1.502308e+21
-1.679554e+20
-9.376628e+20
-2.316758e+21
-2.025995e+21
6.383390e+20
1.945409e+21
3.674368e+21
7.980200e+20
-2.362397e+21
-4.541414e+20
-9.205972e+19
-1.192905e+21
-2.908539e+21
6.931979e+20
1.420778e+21
1.326421e+21
4.113763e+21
-5.882966e+20
-1.139277e+21
3.695361e+19
-1.308004e+21
-1.985154e+21
-8.930928e+20
-1.072208e+21
-9.944663e+20
4.736486e+21
1.322118e+21
-3.151980e+20
6.757501e+20
-5.816386e+19
-2.101083e+21
-2.518453e+21
-1.219235e+21
-1.113073e+20
1.152780e+21
6.023003e+21
3.983946e+20
-1.558199e+21
5.087231e+20
-3.609486e+20
-2.155100e+21
-3.332395e+21
-1.145357e+21
4.382557e+20
2.179859e+21
3.269262e+21
2.569932e+20
-1.277880e+20
2.445104e+19
-9.606009e+20
-1.294730e+21
-1.691255e+21
-5.823303e+20
9.945491e+20
4.501948e+20
4.449035e+21
-4.106506e+20
-1.976165e+20
-1.553191e+21
-4.486886e+20
-1.406293e+21
-1.649041e+21
-2.247294e+21
1.969156e+21
1.452673e+21
4.475565e+21
8.240607e+19
-1.234023e+21
-1.998160e+20
-6.063796e+20
-1.847163e+21
-3.441650e+21
3.771427e+20
1.318538e+21
1.663867e+21
4.095138e+21
2.686199e+20
-1.059870e+21
-4.131219e+20
-1.737205e+21
-2.032656e+21
-1.604221e+21
-4.643123e+20
1.838751e+20
1.211523e+21
5.943542e+21
1.695484e+20
-1.879422e+21
1.149553e+20
-5.731473e+20
-2.389975e+21
-2.213216e+21
-1.436745e+21
1.271827e+21
3.064905e+21
4.360631e+21
-1.163434e+21
-7.859356e+20
-1.232237e+20
-1.307927e+21
-2.111759e+21
-1.824463e+21
-1.457247e+21
1.874104e+21
5.135621e+20
4.898801e+21
9.126161e+20
-7.255139e+20
-1.502535e+21
-9.164616e+19
-8.656099e+20
-2.213401e+21
-1.931220e+21
7.037158e+20
2.032775e+21
3.705122e+21
8.142068e+20
-2.390367e+21
-5.328415e+20
-1.524738e+20
-1.294442e+21
-2.990722e+21
6.091244e+20
1.356414e+21
1.304544e+21
4.111363e+21
-5.306337e+20
-1.097702e+21
1.107243e+20
-1.233622e+21
-1.930031e+21
-8.086068e+20
-1.038999e+21
-9.699272e+20
4.725010e+21
1.269720e+21
-3.403371e+20
6.144994e+20
-1.018763e+20
-2.150269e+21
-2.578742e+21
-1.226077e+21
-1.330367e+20
1.164751e+21
6.034357e+21
4.182974e+20
-1.517174e+21
5.244058e+20
-1.660285e+20
-2.541559e+21
-2.807357e+21
-1.199593e+21
1.206282e+20
2.143209e+21
3.428868e+21
4.110139e+20
-1.572420e+20
-1.605043e+20
-1.107373e+21
-1.368067e+21
-1.624069e+21
-4.568669e+20
1.089885e+21
5.205169e+20
4.411718e+21
-4.745888e+20
-2.969856e+20
-1.591148e+21
-4.362239e+20
-1.365313e+21
-1.547141e+21
-2.186834e+21
2.011636e+21
1.439350e+21
4.402338e+21
2.807258e+19
-1.317146e+21
-2.434457e+20
-6.253117e+20
-1.848165e+21
-3.370492e+21
4.355533e+20
1.394028e+21
1.712236e+21
4.095897e+21
2.797885e+20
-1.105175e+21
-4.520561e+20
-1.811949e+21
-2.074029e+21
-1.631928e+21
-4.881159e+20
2.218648e+20
1.235847e+21
5.995050e+21
2.121743e+20
-1.863644e+21
1.583998e+20
-5.764335e+20
-2.392906e+21
-2.240656e+21
-1.492396e+21
1.256713e+21
3.026940e+21
4.352394e+21
-1.167654e+21
-7.963515e+20
-8.143161e+19
-1.289605e+21
-2.069381e+21
-1.818252e+21
-1.434781e+21
1.880988e+21
4.896920e+20
4.903916e+21
8.794303e+20
-7.437355e+20
-1.527900e+21
-1.293633e+20
-8.518902e+20
-2.218294e+21
-1.908646e+21
7.230940e+20
2.036020e+21
3.750160e+21
8.272006e+20
-2.365157e+21
-5.260610e+20
-1.752836e+20
-1.285495e+21
-3.019579e+21
7.147833e+20
3.780736e+20
4.103667e+21
5.853945e+20
-1.246393e+20
1.015463e+21
4.581792e+20
-2.514562e+21
-3.110224e+21
-8.184787e+20
-6.914959e+19
2.632476e+20
4.515563e+21
1.609630e+21
-1.296171e+21
-5.542374e+20
-4.487996e+20
-1.579267e+21
-1.699700e+21
-6.087808e+20
4.701063e+19
8.970352e+20
5.575124e+21
-7.817432e+19
-1.848459e+21
3.974758e+20
-9.947247e+19
-2.265998e+21
-2.466237e+21
-8.318316e+20
4.021767e+20
2.262485e+21
3.414500e+21
2.018844e+20
-4.642004e+20
-5.159494e+20
-1.435158e+21
-1.534042e+21
-1.656684e+21
-3.069213e+20
1.356946e+21
8.291549e+20
4.745801e+21
-2.567917e+20
-1.907751e+20
-1.651078e+21
-7.548012e+20
-1.240235e+21
-2.370031e+21
-2.367164e+21
2.131309e+21
1.454662e+21
4.305037e+21
3.883671e+19
-1.025404e+21
1.714909e+20
-2.236315e+20
-1.637376e+21
-3.408175e+21
2.572386e+20
1.097039e+21
1.432046e+21
3.859498e+21
9.638760e+19
-1.161696e+21
-6.298181e+20
-1.360890e+21
-2.653796e+21
-1.013102e+21
-6.358482e+20
9.604583e+20
9.694022e+20
6.548565e+21
-1.705604e+20
-1.370764e+21
-5.528398e+19
-1.033339e+21
-1.835637e+21
-3.065891e+21
-1.649145e+21
3.452584e+20
3.471646e+21
4.108570e+21
-3.978047e+20
-1.032729e+21
5.222901e+20
-1.586649e+21
-1.426188e+21
-2.050636e+21
-7.928585e+20
1.517371e+21
9.042790e+20
4.217969e+21
1.060547e+21
-1.553090e+21
-1.338886e+21
-7.761403e+20
-4.604478e+20
-2.603686e+21
-1.316100e+21
4.496757e+20
2.542391e+21
3.676732e+21
1.188918e+21
-2.929969e+21
1.434066e+20
-3.998754e+20
-7.838221e+20
-3.584003e+21
1.031687e+21
-1.123771e+20
4.610138e+21
1.847083e+20
2.947732e+20
3.356456e+20
6.429338e+20
-3.297971e+21
-2.842595e+21
-1.319376e+21
5.246926e+20
1.043129e+20
5.316520e+21
1.471873e+21
-6.009391e+20
-9.279993e+20
3.590244e+19
-2.142359e+21
-1.364076e+21
-1.231501e+21
3.088653e+20
5.866700e+20
5.080619e+21
6.432365e+20
-2.444273e+21
5.463910e+20
-7.315784e+20
-1.705983e+21
-2.652630e+21
-1.626603e+20
2.903723e+19
2.729222e+21
2.952520e+21
8.063431e+20
-7.337094e+20
1.747385e+20
-1.773840e+21
-1.120543e+21
-2.305329e+21
-1.779296e+20
5.351074e+20
9.847027e+20
4.077348e+21
2.052938e+20
-5.443939e+20
-9.503405e+20
-9.618187e+20
-6.444349e+20
-2.369954e+21
-2.038102e+21
1.550828e+21
2.012341e+21
3.963978e+21
4.234256e+20
-1.754570e+21
4.296922e+20
-7.749082e+20
-1.084527e+21
-3.742161e+21
7.726567e+20
6.012653e+20
1.738787e+21
3.231418e+21
4.553537e+20
-1.649832e+21
1.282628e+20
-2.037342e+21
-1.312239e+21
-1.807338e+21
2.436341e+20
-7.021726e+19
1.818916e+21
5.580926e+21
6.143708e+20
-2.146635e+21
-3.828229e+20
3.372613e+19
-3.103860e+21
-2.272332e+21
-2.301105e+21
1.643289e+21
2.685374e+21
4.964087e+21
-1.561453e+21
-2.655715e+20
-4.312587e+20
-5.511022e+20
-2.144733e+21
-9.644115e+20
-1.640346e+21
2.388072e+21
-1.771994e+20
5.176147e+21
-6.626446e+20
2.080332e+19
-2.445854e+21
-2.972142e+20
-1.425553e+21
-1.327584e+21
-1.735848e+21
5.766846e+20
4.373418e+21
1.008723e+21
6.949634e+20
2.665284e+20
-2.587777e+20
-6.594483e+20
-2.975350e+21
-2.913601e+21
7.410872e+20
1.495659e+21
3.814009e+21
5.729288e+20
-1.426076e+21
7.032170e+20
-3.186850e+20
-1.794860e+21
-2.921864e+21
4.684472e+20
-1.791468e+20
1.783887e+21
3.074715e+21
1.903459e+21
-1.555114e+21
-2.961681e+20
-1.370126e+21
-1.351708e+21
-1.989840e+21
2.626402e+20
1.692253e+20
5.227737e+20
6.005539e+21
-1.182089e+21
-2.245279e+21
-5.841384e+20
4.478251e+20
-2.246788e+21
-1.357751e+21
-7.244594e+20
1.276771e+21
2.088017e+21
4.057796e+21
-1.448141e+20
1.325873e+19
-1.150383e+21
-1.321054e+21
-2.539647e+21
-1.782029e+21
-1.307162e+21
1.435288e+21
2.225413e+20
5.305594e+21
-3.715126e+20
7.977191e+20
-1.540413e+21
2.529000e+20
-1.431054e+21
-1.386935e+21
-3.037605e+21
2.293472e+21
8.539015e+20
4.590795e+21
-8.042965e+20
-1.100351e+21
-7.338188e+20
5.740201e+19
-2.037231e+21
-2.706543e+21
2.917945e+19
1.767308e+21
1.114139e+21
4.430328e+21
-2.642123e+20
-3.724970e+20
-1.381019e+21
-3.918337e+20
-2.497618e+21
-1.530994e+21
-1.035069e+21
8.972172e+20
9.377322e+20
6.359193e+21
-5.159530e+20
-1.702158e+21
-1.563469e+20
-8.687650e+20
-1.426292e+21
-2.579830e+21
-1.270110e+21
5.382071e+20
3.427435e+21
3.935266e+21
-6.200344e+20
-1.243618e+21
3.930483e+20
-1.661501e+21
-1.417122e+21
-2.005392e+21
-7.656543e+20
1.503343e+21
8.246938e+20
4.366924e+21
3.916987e+20
-8.107067e+20
-1.380911e+21
-1.131776e+21
-3.908016e+20
-2.188543e+21
-7.946524e+20
-3.615846e+20
5.200351e+21
-7.390494e+19
1.418490e+21
-9.071257e+20
4.957283e+20
-1.735135e+21
-2.080754e+21
-3.790028e+21
1.803071e+21
7.922736e+20
5.130453e+21
-4.907869e+20
1.995259e+20
-1.496703e+20
3.533992e+20
-2.854835e+21
-1.930892e+21
-5.116815e+20
5.221981e+20
4.818658e+20
3.644935e+21
8.091092e+20
-6.264872e+20
-1.073181e+21
-2.404975e+20
-2.121101e+21
-9.032625e+20
-5.517235e+20
8.846459e+20
7.698348e+20
4.909587e+21
2.089194e+20
-2.895961e+21
2.483104e+20
-8.025116e+20
-1.537284e+21
-2.365792e+21
1.808997e+20
3.206635e+20
2.884169e+21
2.970833e+21
6.646297e+20
-9.495669e+20
-8.293022e+19
-2.055966e+21
-1.371940e+21
-2.532887e+21
-3.039669e+20
5.213060e+20
1.070574e+21
4.280211e+21
4.641740e+20
-1.897865e+20
-6.003776e+20
-6.407604e+20
-4.146951e+20
-2.284652e+21
-2.090890e+21
1.325443e+21
1.688227e+21
3.573852e+21
1.212519e+18
-2.126471e+21
1.284821e+20
-9.107514e+20
-1.043652e+21
-3.553048e+21
1.099381e+21
9.789970e+20
2.159946e+21
3.626591e+21
7.237609e+20
-1.276345e+21
-4.835588e+20
-1.399280e+21
-1.656625e+21
-2.578266e+21
-1.888734e+20
-1.467127e+20
1.794898e+21
5.376154e+21
3.783050e+20
-2.566235e+21
5.020757e+20
-6.336841e+20
-2.539958e+21
-1.229921e+21
-1.878781e+21
1.402037e+21
2.323812e+21
4.813697e+21
-1.448550e+21
-1.097072e+20
-4.469997e+20
-7.662366e+20
-2.515018e+21
-1.276621e+21
-1.839492e+21
2.366267e+21
-6.647451e+19
5.337253e+21
-4.899150e+20
1.301306e+20
-2.356759e+21
-2.231373e+20
-1.367297e+21
-1.251095e+21
-1.680706e+21
6.439297e+20
4.416721e+21
9.805605e+20
6.030507e+20
8.048791e+19
-4.608889e+20
-8.474379e+20
-3.130146e+21
-2.981120e+21
7.359797e+20
1.607421e+21
4.133314e+21
4.056936e+20
-6.954305e+20
8.101487e+20
-5.126933e+20
-1.855895e+21
-2.812854e+21
5.008238e+20
-3.736221e+20
1.449305e+21
2.725872e+21
1.724772e+21
-1.535147e+21
-1.490766e+20
-1.162414e+21
-1.195067e+21
-1.868180e+21
3.427771e+20
2.081689e+20
5.638142e+20
6.015412e+21
-1.137242e+21
-2.237732e+21
-6.041182e+20
3.792350e+20
-2.372121e+21
-1.492954e+21
-8.780543e+20
1.181437e+21
2.058968e+21
4.078539e+21
-6.028448e+19
1.076541e+20
-1.042879e+21
-9.851126e+20
-3.049736e+21
-9.746811e+20
-1.425569e+21
9.381081e+20
8.092641e+19
5.496129e+21
-1.869883e+20
7.162756e+20
-1.758330e+21
3.630329e+19
-1.469547e+21
-1.240794e+21
-2.811890e+21
2.499820e+21
9.145558e+20
4.534687e+21
-9.460282e+20
-1.277406e+21
-8.570029e+20
-9.690960e+18
-1.995083e+21
-2.593775e+21
1.457249e+20
1.866853e+21
1.135458e+21
4.422988e+21
-2.935918e+20
-4.223727e+20
-1.408273e+21
-4.252752e+20
-2.462579e+21
-1.492324e+21
-9.827160e+20
9.318105e+20
9.262261e+20
6.323190e+21
-6.083481e+20
-1.789081e+21
-2.316984e+20
-9.374428e+20
-1.452172e+21
-2.589814e+21
-1.210712e+21
6.497446e+20
3.551359e+21
4.069080e+21
-5.363753e+20
-1.176586e+21
4.235474e+20
-1.692799e+21
-1.484379e+21
-2.138884e+21
-7.585095e+20
4.479805e+20
3.552593e+21
8.018559e+20
7.959526e+20
1.306304e+21
-9.956117e+20
-2.350700e+21
-1.482097e+21
-2.109217e+21
2.393472e+20
6.896690e+20
5.595977e+21
-4.799603e+20
5.560969e+20
-1.670929e+21
1.729449e+20
-1.492463e+21
-1.481577e+21
-3.181218e+21
2.159307e+21
7.228384e+20
4.755867e+21
-1.048043e+21
-2.921152e+20
-4.096073e+20
3.919347e+20
-2.521573e+21
-1.457938e+21
-9.354584e+18
8.945452e+20
6.063232e+20
3.521841e+21
4.537546e+20
-1.059983e+21
-1.474603e+21
-5.292832e+20
-2.214320e+21
-8.263241e+20
-2.894023e+20
1.250772e+21
1.134026e+21
5.187394e+21
3.424139e+20
-2.905269e+21
6.292499e+19
-1.078270e+21
-1.853099e+21
-2.674295e+21
-3.700715e+19
1.990140e+20
2.925869e+21
3.153517e+21
9.281695e+20
-6.379625e+20
1.575414e+20
-1.635140e+21
-1.844549e+21
-1.779395e+21
-5.017828e+20
-1.536087e+20
7.358952e+20
4.300912e+21
4.892702e+20
-3.576323e+20
-8.880008e+20
-8.219209e+20
-3.873015e+20
-1.998209e+21
-1.668129e+21
1.712926e+21
1.947766e+21
3.627192e+21
-7.353996e+19
-2.274580e+21
-4.953802e+19
-1.054800e+21
-1.176902e+21
-3.632755e+21
1.045524e+21
9.133815e+20
2.099830e+21
3.545939e+21
6.947273e+20
-1.242975e+21
-3.943354e+20
-1.259492e+21
-1.483800e+21
-2.376503e+21
-3.866610e+19
-3.762597e+19
1.828455e+21
5.306391e+21
2.383001e+20
-2.787085e+21
2.866132e+20
-8.171627e+20
-2.683652e+21
-1.293312e+21
-1.890929e+21
1.488390e+21
2.483326e+21
4.998133e+21
-1.249745e+21
3.622578e+19
-3.264768e+20
-6.962245e+20
-2.518588e+21
-1.350529e+21
-1.851608e+21
1.295792e+21
2.583803e+21
1.696279e+21
-1.479167e+20
2.160728e+21
-2.013027e+21
-1.514876e+21
-2.492918e+21
-1.151596e+21
-6.186983e+20
1.779718e+21
4.854099e+21
6.251649e+20
-1.928563e+20
-6.482875e+20
-7.263469e+20
-6.166916e+20
-2.552001e+21
-2.387718e+21
1.048012e+21
1.511159e+21
3.683928e+21
-1.861759e+20
-1.247597e+21
5.241310e+20
-4.614480e+20
-1.544148e+21
-2.088032e+21
4.122013e+20
7.841764e+20
1.543886e+21
2.196539e+21
1.364319e+21
-1.687944e+21
-3.030070e+20
-1.453767e+21
-1.531355e+21
-2.021041e+21
4.925889e+20
3.413833e+20
1.880768e+21
5.426238e+21
-8.376899e+20
-1.738770e+21
-7.950002e+20
-4.078155e+20
-3.087666e+21
-1.746316e+21
-7.079342e+20
1.541108e+21
2.329183e+21
4.216824e+21
-1.622656e+19
1.380835e+20
-9.322773e+20
-8.293748e+20
-2.858611e+21
-8.440350e+20
-1.446698e+21
7.639681e+20
-2.505650e+20
5.132259e+21
-5.054257e+20
5.002780e+20
-1.830224e+21
1.150987e+20
-1.242579e+21
-9.623259e+20
-2.498812e+21
2.780931e+21
1.103639e+21
4.635366e+21
-9.694514e+20
-1.358566e+21
-9.831132e+20
-1.796556e+20
-2.166841e+21
-2.785799e+21
2.585974e+17
1.769788e+21
1.070574e+21
4.412614e+21
-2.875798e+20
-3.516432e+20
-1.288840e+21
-2.847958e+20
-2.315891e+21
-1.353261e+21
-8.408358e+20
1.016190e+21
9.831448e+20
6.331908e+21
-6.710870e+20
-1.895250e+21
-4.044383e+20
-1.106695e+21
-1.606682e+21
-2.732343e+21
-1.187304e+21
-3.522574e+20
6.383797e+21
6.494435e+20
2.874680e+19
1.091184e+21
9.313129e+20
-2.844890e+21
-2.403953e+21
-2.466042e+21
7.101644e+20
1.352664e+21
3.531963e+21
1.746946e+20
-2.191300e+19
5.876485e+20
-1.394728e+21
-2.291245e+21
-1.066147e+21
-1.505887e+21
7.513836e+20
8.925125e+20
5.464645e+21
-8.764972e+20
1.413232e+20
-1.918346e+21
1.875246e+20
-1.192949e+21
-1.036314e+21
-2.700656e+21
2.501688e+21
7.960271e+20
4.526821e+21
-1.523263e+21
-8.674397e+20
-9.823754e+20
-2.010045e+17
-2.680713e+21
-1.129070e+21
-2.370147e+20
2.145032e+21
1.070683e+21
3.564386e+21
6.889058e+20
-6.820653e+20
-1.370179e+21
-8.362001e+20
-2.820401e+21
-1.476835e+21
-7.290714e+20
1.074780e+21
1.226904e+21
5.425516e+21
5.987388e+20
-2.695995e+21
2.127170e+20
-9.461367e+20
-1.765314e+21
-2.584200e+21
2.925716e+19
1.979467e+20
2.863336e+21
2.993995e+21
7.448155e+20
-8.169903e+20
3.367200e+18
-1.707244e+21
-1.850667e+21
-1.668412e+21
-3.059184e+20
6.358927e+19
9.452553e+20
4.419424e+21
5.368400e+20
-4.023479e+20
-1.032863e+21
-1.039780e+21
-6.349852e+20
-2.203153e+21
-1.834114e+21
1.657361e+21
2.001450e+21
3.761664e+21
1.409693e+20
-2.050597e+21
1.955798e+20
-8.375897e+20
-1.043545e+21
-3.584452e+21
9.657901e+20
7.675704e+20
1.902060e+21
3.304687e+21
4.637776e+20
-1.468982e+21
-5.374505e+20
-1.312290e+21
-1.458234e+21
-2.279749e+21
1.156809e+20
1.787168e+20
2.035533e+21
5.519794e+21
4.206672e+20
-2.676531e+21
3.362143e+20
-8.672016e+20
-2.775926e+21
-1.425119e+21
-1.951790e+21
3.710806e+20
5.094617e+21
1.333775e+21
-9.125831e+20
2.078537e+21
4.202010e+19
-1.975459e+21
-3.457752e+21
-1.648042e+21
-3.076288e+19
1.816739e+21
3.538774e+21
1.247262e+21
-1.204740e+21
1.548249e+21
-1.994027e+21
-1.164173e+21
-2.093948e+21
-9.081847e+20
-5.395220e+20
1.670837e+21
4.548239e+21
1.988622e+20
-6.701092e+20
-9.895417e+20
-8.227814e+20
-4.369449e+20
-2.109509e+21
-1.837963e+21
1.622968e+21
1.908190e+21
3.833255e+21
-3.180697e+20
-1.618739e+21
5.218902e+19
-9.392790e+20
-1.864969e+21
-2.195622e+21
5.031700e+20
1.047851e+21
1.859704e+21
2.519395e+21
1.599134e+21
-1.619512e+21
-3.951953e+20
-1.715539e+21
-1.848954e+21
-2.324421e+21
2.574025e+20
2.517693e+20
1.920036e+21
5.658292e+21
-5.089622e+20
-1.349900e+21
-4.319673e+20
-1.528542e+20
-2.963855e+21
-1.813794e+21
-9.119551e+20
1.221969e+21
1.925509e+21
3.814801e+21
-3.867681e+20
-9.304259e+19
-9.975782e+20
-7.424321e+20
-2.617058e+21
-5.247758e+20
-1.051819e+21
1.165959e+21
7.927730e+19
5.364556e+21
-4.419573e+20
4.599998e+20
-2.016504e+21
-1.594852e+20
-1.575417e+21
-1.318897e+21
-2.804441e+21
2.529689e+21
9.824846e+20
4.643150e+21
-8.620957e+20
-1.151109e+21
-7.422349e+20
1.106954e+20
-1.874197e+21
-2.549829e+21
1.697250e+20
1.791539e+21
1.241087e+21
3.702090e+21
2.765692e+20
-6.661254e+20
-2.004152e+21
-5.676910e+20
-2.213323e+21
-1.194756e+21
-8.605913e+20
8.519660e+20
8.831334e+20
6.396536e+21
-3.870543e+20
-1.474895e+21
-3.438832e+20
-1.145741e+20
-2.625844e+21
-2.737009e+21
-7.659053e+20
-4.302243e+20
5.892574e+21
2.155234e+20
-7.356016e+18
1.350117e+21
1.183879e+21
-2.791981e+21
-2.621687e+21
-2.777858e+21
6.783936e+20
7.264595e+20
4.482105e+21
4.156895e+20
-9.395801e+19
7.788655e+20
-9.833471e+20
-2.062490e+21
-1.238831e+21
-1.945943e+21
2.683567e+20
6.264600e+20
5.461391e+21
-7.209195e+20
3.389632e+20
-1.826455e+21
1.851608e+20
-1.269597e+21
-1.142518e+21
-2.748635e+21
2.508216e+21
9.298121e+20
4.699184e+21
-1.335817e+21
-7.267007e+20
-9.349412e+20
-2.779908e+19
-2.806250e+21
-1.275199e+21
-3.819879e+20
2.038752e+21
7.627626e+20
3.969614e+21
7.259611e+20
-1.954636e+21
-4.393569e+20
7.259015e+20
-3.704449e+21
-2.713957e+21
-9.639273e+20
2.498209e+21
2.140883e+21
4.206452e+21
9.422406e+20
-1.926341e+21
-1.121922e+21
-2.169761e+21
-1.649948e+21
-7.065552e+20
1.181268e+21
-1.034588e+21
2.891839e+21
3.326823e+21
-9.744060e+20
-2.288518e+21
4.414743e+20
-2.304440e+20
1.657024e+20
-1.131851e+21
-2.206552e+21
-8.784276e+19
1.602147e+21
3.191301e+21
-5.131005e+20
-1.972969e+20
8.748847e+20
1.119908e+20
-1.857847e+21
-2.122538e+21
-1.406563e+21
4.082624e+19
6.220838e+20
3.930454e+21
2.264256e+21
-1.146963e+21
6.574519e+20
-2.334862e+21
-1.184521e+21
-3.267973e+21
-4.897409e+20
-1.599599e+20
2.736443e+21
5.004307e+21
2.718782e+21
-3.266393e+21
-6.497173e+20
-1.307366e+21
-3.252120e+21
-3.458040e+21
6.813704e+20
1.388394e+21
6.117643e+21
7.899412e+20
8.750652e+20
-1.687005e+20
-9.323854e+20
-3.575000e+21
-3.571186e+21
-1.086368e+20
8.846737e+20
1.848803e+21
3.584360e+21
8.458915e+20
-1.023466e+21
2.017014e+20
-1.237817e+21
-1.507887e+21
-1.061177e+21
-1.255669e+19
-1.008346e+21
1.787335e+21
3.631817e+21
-7.911318e+20
-2.883721e+21
1.648712e+21
2.386086e+20
6.558342e+20
-2.653211e+21
-1.141465e+20
-7.383635e+20
7.195784e+20
2.540727e+21
-5.177677e+20
9.762510e+19
9.353226e+20
-1.853961e+20
-2.213095e+21
-2.154914e+21
-9.602154e+20
8.195157e+20
1.382603e+21
4.541652e+21
1.767018e+21
-6.099294e+20
-1.636045e+21
-1.511837e+21
-2.053135e+21
-4.284964e+21
-1.048078e+21
1.615352e+21
3.594770e+21
4.882539e+21
2.438614e+21
-3.225898e+21
-3.519106e+20
-9.871054e+20
-3.081935e+21
-3.500417e+21
3.273475e+20
1.952978e+21
2.853351e+21
4.200710e+21
-6.384083e+20
-1.040578e+21
-2.124647e+21
-1.473164e+21
-2.660124e+21
4.368787e+20
7.582341e+20
4.570363e+20
2.340071e+21
4.380115e+21
-1.843285e+21
-2.233036e+21
-5.371411e+19
3.238730e+20
-1.371943e+21
-3.873632e+20
-2.906513e+21
1.061845e+21
6.249303e+20
3.930085e+21
-1.644638e+21
7.512690e+20
1.588980e+20
1.424573e+21
-2.411403e+21
-9.481347e+20
-2.223097e+21
9.020971e+20
-4.609442e+20
4.663604e+21
1.124277e+21
-3.543934e+20
-4.157301e+20
-1.512599e+21
-2.227692e+21
-2.456626e+21
-1.471087e+21
7.439554e+20
1.867995e+21
6.069391e+21
1.974345e+21
-2.058928e+21
-1.324847e+21
-1.304310e+20
-4.043509e+21
-2.464430e+21
-3.061658e+20
2.137827e+21
4.961826e+21
1.421109e+21
-3.397677e+20
5.110074e+20
-2.025331e+21
-2.999740e+21
-3.379295e+21
-1.154052e+21
2.379051e+21
1.365184e+21
4.658509e+21
-1.054510e+20
3.774021e+18
-5.145995e+20
-1.069625e+20
-2.334743e+21
-2.489679e+20
-1.191712e+21
-4.106840e+20
5.889304e+20
4.387825e+21
-1.816261e+21
-1.936923e+21
7.312947e+20
1.202222e+21
-2.591941e+20
-1.719314e+21
-9.750705e+20
2.771832e+20
-6.262756e+19
3.645498e+21
-1.286919e+21
1.208762e+21
1.004309e+20
7.850637e+20
-3.197997e+21
-1.371696e+21
-2.051966e+21
1.535967e+21
2.658767e+20
5.289395e+21
7.300781e+20
2.739887e+20
-2.571622e+21
-4.920312e+20
-2.887855e+21
-3.216505e+21
-1.844714e+21
2.655571e+21
2.796720e+21
5.893048e+21
1.575069e+21
-2.268074e+21
-1.307064e+21
-6.617757e+19
-4.077178e+21
-2.635021e+21
-6.952793e+20
2.763582e+21
1.873464e+21
4.725817e+21
-5.335099e+20
-2.294726e+21
-8.477518e+20
-2.168703e+21
-1.834275e+21
-6.410956e+20
1.683522e+21
-2.494578e+20
3.573656e+21
3.665316e+21
-7.995069e+20
-3.212477e+21
7.848213e+20
-7.038544e+20
-5.163729e+20
-1.320335e+21
-2.007075e+21
8.035982e+19
1.442705e+21
2.821847e+21
-8.599772e+20
-3.252736e+20
1.036741e+21
4.973845e+20
-1.362620e+21
-1.699064e+21
-1.097546e+21
1.985648e+20
6.275662e+20
3.845332e+21
2.089192e+21
-1.336399e+21
4.557067e+20
-2.565094e+21
-1.412556e+21
-3.511075e+21
-5.511529e+20
-1.185860e+21
5.546864e+21
1.601741e+21
3.324214e+21
-9.134318e+20
-1.324076e+18
-2.336673e+21
-4.243960e+21
-3.358952e+21
1.660993e+21
2.315050e+21
6.331550e+21
1.706835e+20
-1.988313e+20
-1.110115e+21
-1.375067e+21
-3.382931e+21
-2.954149e+21
5.757116e+20
1.356611e+21
1.921066e+21
3.337470e+21
4.322884e+20
-1.417892e+21
1.682955e+19
-1.173598e+21
-1.173515e+21
-5.814169e+20
4.413919e+20
-7.220846e+20
1.821271e+21
3.427703e+21
-1.220077e+21
-3.387876e+21
1.180609e+21
-1.060185e+20
5.265635e+20
-2.585409e+21
1.690508e+20
-3.221104e+20
1.153077e+21
2.920655e+21
-2.977869e+20
1.742820e+20
8.613745e+20
-3.992107e+20
-2.492357e+21
-2.474267e+21
-1.209886e+21
6.722989e+20
1.340007e+21
4.598112e+21
1.899996e+21
-4.361917e+20
-1.258683e+21
-1.955645e+21
-1.199636e+21
-4.369194e+21
-1.554501e+21
1.398230e+21
3.727751e+21
5.010754e+21
2.335357e+21
-3.472774e+21
-5.789496e+20
-9.899417e+20
-2.853579e+21
-3.164856e+21
6.475879e+20
2.111442e+21
2.863867e+21
4.083089e+21
-8.352052e+20
-1.249330e+21
-2.297435e+21
-1.567828e+21
-2.730875e+21
4.125832e+20
7.507938e+20
4.402179e+20
2.345215e+21
4.388519e+21
-1.763566e+21
-2.085569e+21
1.286307e+20
5.355665e+20
-1.203651e+21
-2.480602e+20
-2.836435e+21
1.021496e+21
4.929843e+20
3.680537e+21
-1.906337e+21
4.647560e+20
-8.059834e+19
1.258238e+21
-2.491882e+21
-9.049468e+20
-2.099457e+21
1.132171e+21
-1.712237e+20
4.948449e+21
1.384773e+21
-1.874781e+20
-3.117776e+20
-1.489886e+21
-2.306620e+21
-2.604574e+21
-1.587212e+21
-4.279352e+20
4.462240e+21
2.357954e+21
2.268450e+21
-7.245996e+19
-9.701300e+20
-1.376163e+21
-5.115142e+21
-2.309509e+21
8.179547e+20
3.345417e+21
5.475834e+21
1.136768e+21
-1.081053e+21
-1.870056e+20
-2.286546e+21
-2.789851e+21
-2.843131e+21
-6.180746e+20
2.618551e+21
1.207892e+21
4.125681e+21
-7.727605e+20
-5.746497e+20
-8.387194e+20
-6.975844e+19
-2.008045e+21
3.194214e+20
-6.015451e+20
7.233370e+19
8.465798e+20
4.372866e+21
-2.038698e+21
-2.314175e+21
3.577278e+20
9.194735e+20
-4.100678e+20
-1.698914e+21
-8.452659e+20
5.103355e+20
1.908442e+20
3.825509e+21
-1.211702e+21
1.121743e+21
-8.290122e+19
5.392762e+20
-3.469130e+21
-1.585362e+21
-2.199103e+21
1.559174e+21
4.085847e+20
5.556219e+21
1.063804e+21
5.782583e+20
-2.078698e+21
-9.261447e+20
-2.074456e+21
-3.379659e+21
-2.506796e+21
2.277125e+21
2.694930e+21
5.799227e+21
1.301285e+21
-2.655877e+21
-1.574762e+21
-9.310060e+19
-3.797174e+21
-2.165965e+21
-2.150925e+20
3.148828e+21
2.062867e+21
4.800992e+21
-5.798873e+20
-2.382080e+21
-9.534857e+20
-2.296747e+21
-1.965555e+21
-8.244626e+20
1.493276e+21
-4.460201e+20
3.375316e+21
3.522715e+21
-8.874627e+20
-3.170861e+21
9.488201e+20
-4.618874e+20
-2.174400e+20
-1.069118e+21
-1.634397e+21
-1.588668e+20
1.986976e+21
2.701224e+21
-1.344741e+21
-5.834507e+20
9.767518e+20
4.512856e+20
-1.529111e+21
-1.946424e+21
-1.262951e+21
1.765791e+20
8.009568e+20
4.125916e+21
2.350679e+21
-1.151498e+21
4.999275e+20
-2.589952e+21
-1.471143e+21
-3.582438e+21
-5.896061e+20
-1.225431e+21
5.544451e+21
1.607531e+21
3.299268e+21
-9.545404e+20
-9.466931e+19
-2.393154e+21
-4.299221e+21
-3.369822e+21
1.689177e+21
2.365194e+21
6.418622e+21
2.402930e+20
-1.172517e+20
-1.044895e+21
-1.326347e+21
-3.664786e+21
-2.223718e+21
-4.946857e+20
1.425798e+21
2.467010e+21
3.415297e+21
3.207827e+19
-1.744860e+21
5.673595e+19
-8.871920e+20
-6.346277e+20
-1.075681e+21
1.102186e+21
-1.058456e+21
1.158537e+21
3.266672e+21
-8.877799e+20
